11686
12652
14206
15463
16010
16637
17283
17659
17990
18368
18598
18719
18915
19065
19104
19189
19252
19254
19286
19310
19307
19300
19261
19218
19194
19157
19114
19061
18973
18896
18838
18787
18736
18625
18484
18400
18329
18230
18145
18046
17918
17833
17763
17664
17569
17458
17322
17213
17104
16983
16891
16785
16654
16555
16472
16363
16250
16141
16022
15918
15824
15729
15627
15535
15572
15787
16027
16008
15364
14521
14453
14744
14569
14356
14378
14296
14143
14100
14066
13952
13833
13756
13676
13586
13519
13468
13378
13248
13163
13105
13025
12957
12892
12807
12729
12681
12620
12533
12461
12398
12323
12248
12182
12105
12015
11914
11805
11700
11606
11512
11420
11340
11265
11197
11139
11076
11006
10940
10877
10814
10761
10701
10638
10580
10519
10463
10412
10362
10301
10221
10153
10110
10057
9994
9933
9873
9805
9756
9710
9640
9580
9529
9468
9427
9376
9287
9229
9204
9146
9091
9047
8989
8936
8892
8839
8802
8756
8679
8628
8597
8539
8476
8432
8401
8374
8333
8282
8243
8202
8151
8103
8040
7982
7948
7904
7856
7827
7781
7720
7686
7650
7602
7570
7531
7476
7422
7435
7614
7928
8171
7982
7222
6706
6938
7086
6883
6866
6924
6839
6788
6805
6781
6745
6713
6653
6626
6631
6592
6544
6541
6532
6476
6430
6415
6394
6362
6340
6328
6314
6294
6275
6258
6236
6214
6185
6139
6088
6038
5984
5929
5861
5803
5757
5716
5684
5667
5648
5619
5582
5553
5539
5529
5510
5481
5461
5442
5406
5379
5369
5350
5321
5292
5265
5256
5251
5217
5171
5149
5132
5106
5084
5057
5021
5001
4980
4951
4936
4917
4878
4854
4839
4822
4808
4784
4759
4740
4713
4677
4658
4636
4612
4590
4570
4551
4537
4541
4539
4524
4500
4462
4432
4403
4360
4338
4333
4314
4282
4251
4232
4224
4207
4186
4156
4115
4098
4101
4086
4101
4258
4587
4926
4854
4110
3510
3730
3943
3742
3716
3830
3793
3757
3791
3786
3750
3735
3742
3735
3728
3742
3747
3721
3701
3692
3684
3677
3675
3682
3677
3658
3648
3648
3641
3638
3648
3653
3643
3619
3578
3546
3527
3481
3423
3372
3314
3287
3304
3292
3246
3241
3258
3246
3232
3234
3224
3207
3207
3205
3193
3183
3181
3166
3152
3154
3142
3113
3103
3115
3118
3098
3079
3067
3052
3036
3028
3031
3014
2980
2960
2973
2970
2936
2919
2934
2927
2898
2890
2888
2864
2842
2839
2842
2830
2810
2808
2822
2825
2813
2789
2760
2762
2755
2716
2704
2709
2682
2655
2658
2646
2624
2624
2626
2617
2600
2595
2590
2571
2689
3048
3445
3546
2970
2118
2062
2479
2428
2261
2346
2379
2333
2348
2355
2329
2336
2343
2326
2316
2329
2331
2312
2295
2300
2312
2321
2324
2316
2316
2319
2314
2324
2343
2348
2343
2341
2348
2353
2336
2312
2285
2239
2186
2145
2108
2072
2062
2086
2103
2086
2057
2048
2060
2062
2053
2057
2057
2043
2043
2055
2057
2062
2057
2036
2028
2048
2062
2053
2040
2038
2024
2021
2033
2019
1987
1990
2002
1978
1965
1985
1970
1929
1944
1978
1961
1927
1907
1910
1927
1924
1886
1886
1919
1888
1844
1876
1915
1893
1861
1866
1893
1888
1832
1803
1810
1803
1806
1810
1794
1791
1806
1779
1735
1748
1769
1750
1716
1784
2057
2479
2808
2588
1685
1145
1498
1704
1496
1484
1580
1580
1583
1595
1580
1576
1595
1610
1610
1595
1583
1597
1605
1605
1617
1626
1612
1595
1597
1619
1643
1651
1653
1668
1685
1692
1687
1668
1668
1689
1670
1617
1573
1532
1491
1467
1450
1435
1447
1450
1435
1430
1445
1452
1447
1442
1445
1438
1423
1421
1426
1430
1430
1433
1428
1423
1428
1435
1426
1411
1421
1440
1433
1411
1411
1418
1396
1375
1384
1389
1377
1372
1375
1375
1375
1370
1365
1367
1353
1341
1346
1363
1377
1384
1384
1384
1382
1365
1338
1324
1334
1336
1321
1314
1317
1302
1304
1329
1319
1300
1312
1307
1278
1336
1583
1970
2312
2154
1295
731
1048
1244
1045
1058
1154
1099
1089
1145
1135
1120
1147
1162
1157
1159
1169
1174
1179
1176
1169
1176
1186
1183
1188
1203
1208
1212
1232
1254
1263
1263
1263
1268
1266
1242
1212
1183
1128
1077
1062
1048
1016
1007
1009
1012
1019
1024
1024
1024
1033
1041
1036
1041
1050
1048
1038
1041
1055
1058
1045
1048
1062
1065
1055
1050
1048
1045
1048
1048
1043
1041
1026
1002
995
1004
1012
1009
1002
987
982
999
1009
987
968
982
997
999
1021
1028
1016
1028
1036
1019
1009
990
966
973
975
966
963
951
939
949
966
973
968
961
941
932
992
1217
1573
1871
1789
1094
498
714
990
837
789
895
893
881
922
929
915
932
946
936
929
932
934
936
944
949
946
936
934
941
946
953
970
982
990
1007
1024
1021
1007
997
999
992
951
895
854
825
808
791
779
782
786
786
796
806
806
808
813
820
828
815
806
815
823
823
835
842
840
840
840
837
842
847
844
844
840
837
840
840
835
815
806
820
825
813
813
815
811
806
803
803
818
825
808
798
813
815
803
782
769
772
772
765
765
767
765
762
762
765
762
745
733
731
738
866
1200
1595
1752
1271
421
278
704
702
522
614
663
607
629
670
665
668
680
685
687
692
694
702
706
704
702
704
709
716
728
738
743
755
774
789
794
796
796
791
777
757
728
682
631
585
554
544
539
537
547
559
564
568
576
578
585
595
602
605
605
600
607
622
631
639
641
646
653
658
658
658
648
634
636
639
631
627
627
622
624
627
631
634
627
627
631
636
634
627
622
619
619
624
634
651
660
660
663
663
651
629
614
617
619
617
614
610
600
600
607
600
588
585
576
568
658
929
1307
1605
1387
532
79
445
588
370
409
515
469
467
513
508
501
522
532
532
539
542
544
547
547
549
556
561
564
573
585
600
610
612
629
656
668
668
660
646
631
610
568
518
481
455
438
433
433
435
443
447
455
462
467
467
464
469
479
489
489
476
474
489
496
498
508
510
510
515
520
520
522
520
515
518
518
518
520
518
515
518
515
513
513
513
513
508
496
496
501
498
493
501
515
527
532
532
535
530
515
493
479
474
472
474
472
469
472
469
472
476
476
474
467
455
515
752
1118
1418
1285
508
-46
254
486
290
278
384
358
348
392
401
392
404
418
426
435
445
450
455
464
469
472
474
481
493
508
518
530
544
564
573
578
578
581
573
559
537
503
455
409
380
363
355
358
360
358
363
370
380
389
394
392
384
384
401
411
409
409
416
426
428
433
435
430
428
433
438
435
438
435
428
421
414
416
418
414
418
426
426
426
428
426
426
430
430
433
430
426
421
421
428
445
460
460
457
460
452
445
430
411
411
416
409
401
394
382
384
401
406
404
404
399
389
435
646
1004
1329
1300
610
-70
111
430
271
203
331
324
278
314
324
309
331
353
351
360
370
372
368
358
355
370
375
382
399
414
421
435
450
460
472
484
491
489
479
469
455
426
382
336
297
271
263
261
259
263
273
278
283
290
297
297
302
307
317
329
329
329
338
348
351
353
358
363
360
358
360
368
370
363
360
363
363
348
341
351
351
343
341
343
331
312
317
336
326
302
302
314
317
317
324
334
341
346
355
363
363
363
351
338
348
353
336
334
341
312
283
297
307
300
314
329
300
278
411
748
1120
1271
828
7
-164
232
244
75
152
198
152
174
215
222
220
208
200
225
249
230
215
239
249
230
227
249
266
266
256
266
300
312
305
314
324
314
322
319
283
254
234
203
152
106
104
113
108
121
145
140
138
150
147
140
150
169
181
179
174
184
198
210
217
225
244
266
268
263
266
276
283
292
292
290
292
297
295
290
285
280
271
251
254
273
276
259
242
242
246
251
242
230
225
227
251
268
261
259
251
239
237
227
220
227
222
205
208
217
220
217
210
210
222
215
200
205
305
600
999
1193
774
-65
-317
77
157
2
67
121
70
92
138
130
138
152
145
142
162
181
186
186
184
184
188
203
210
213
222
239
254
261
278
295
295
292
292
295
297
280
242
200
164
140
123
118
116
104
96
116
133
133
140
154
154
152
167
181
184
186
198
213
215
213
217
222
225
227
227
222
217
213
217
222
222
220
217
217
222
230
227
222
220
222
225
232
232
227
225
225
227
220
210
227
244
232
234
246
237
227
225
210
200
198
196
200
200
193
203
208
191
186
188
174
162
176
326
680
1079
1191
629
-205
-251
184
147
-16
87
133
84
108
142
133
135
142
147
162
171
171
171
167
164
179
176
174
191
203
215
239
259
266
278
297
312
314
309
302
290
261
215
164
130
106
84
79
89
92
92
94
99
108
111
113
123
123
123
133
142
140
130
133
145
150
154
167
169
162
162
167
169
167
159
150
145
150
152
154
159
154
147
154
157
154
154
154
154
159
162
162
150
138
147
174
186
188
196
191
181
171
162
162
157
150
147
150
150
157
159
154
159
167
169
162
167
314
658
1036
1164
651
-181
-261
157
125
-29
67
94
43
79
111
99
108
123
125
138
147
150
147
145
145
152
159
164
169
176
188
205
222
239
256
268
276
283
285
276
256
222
176
135
101
72
55
48
48
53
62
65
60
58
60
62
72
79
82
84
92
101
111
116
116
123
130
133
140
145
142
140
145
150
150
150
140
128
130
140
140
130
128
135
140
138
133
128
133
142
142
142
145
145
147
145
145
162
179
181
186
196
191
179
162
147
150
154
150
147
152
152
150
152
152
154
157
152
130
142
312
665
1028
1116
542
-256
-246
142
46
-87
38
62
9
41
70
58
70
89
89
94
101
94
89
94
99
96
96
108
121
133
138
145
164
191
208
217
225
230
232
232
222
191
140
92
58
38
29
24
19
26
36
43
53
62
65
58
62
75
87
92
89
84
87
96
104
111
113
116
123
130
135
135
133
133
133
140
142
138
123
116
123
128
130
130
125
125
125
116
116
123
121
121
128
130
125
121
118
118
130
152
164
167
169
174
169
154
140
128
128
133
135
135
140
138
133
135
142
147
147
140
125
181
418
789
1106
1014
249
-375
-104
171
-26
-62
60
38
16
67
79
65
84
101
99
99
104
101
94
104
118
123
121
116
125
135
140
152
167
174
193
215
220
217
217
210
191
164
125
79
46
19
12
14
14
14
21
33
36
41
58
60
62
72
67
65
92
99
82
94
142
150
121
135
147
104
96
140
123
79
84
89
70
62
65
65
60
58
55
53
43
50
67
55
36
43
43
29
24
26
21
4
-9
-7
9
19
16
14
14
9
4
-2
-19
-24
-24
-26
-12
0
-14
-14
0
-7
-16
-7
-2
-16
-36
36
334
767
1033
716
-167
-588
-188
-19
-227
-191
-87
-130
-133
-84
-84
-96
-77
-62
-65
-55
-36
-33
-31
-21
-7
0
4
19
26
26
50
84
89
87
96
113
121
121
108
79
50
19
-24
-60
-82
-101
-106
-99
-99
-101
-94
-96
-96
-82
-70
-62
-53
-46
-41
-21
-7
-9
-7
-2
4
14
21
19
16
19
24
29
29
26
19
14
21
26
24
21
21
24
24
29
36
38
31
26
31
38
41
31
16
21
33
31
26
26
36
55
67
75
79
70
46
21
2
0
9
9
7
7
9
16
26
24
21
29
31
19
19
140
450
820
973
539
-268
-443
-41
-14
-179
-94
-48
-118
-104
-58
-62
-58
-38
-41
-41
-24
-14
-12
-4
0
-2
7
26
31
36
53
70
82
99
118
130
138
140
145
145
138
113
70
19
-16
-36
-55
-60
-60
-77
-87
-67
-46
-46
-38
-29
-21
-12
0
0
0
9
24
26
14
12
24
36
38
41
46
43
43
43
46
50
48
48
50
48
46
46
36
31
36
31
31
43
46
41
50
53
46
48
50
46
36
33
50
72
75
75
79
82
77
62
46
43
43
36
38
43
36
26
21
12
4
7
14
4
-14
67
365
762
1002
719
-111
-518
-140
9
-196
-167
-72
-123
-130
-79
-79
-84
-62
-55
-55
-46
-36
-33
-33
-33
-29
-16
-7
2
12
16
14
24
53
75
87
101
116
118
116
113
94
43
-7
-31
-46
-65
-82
-92
-84
-72
-70
-62
-41
-33
-38
-46
-48
-33
-21
-38
-43
-9
9
0
2
14
21
21
16
19
19
21
31
31
24
24
29
24
16
19
19
14
14
16
16
19
24
24
12
0
4
7
4
4
0
-12
-7
16
24
19
26
33
31
9
-12
-9
-19
-38
-33
-26
-24
-16
-9
-12
-12
-7
-2
-12
-19
94
416
825
1009
527
-341
-489
-70
-84
-246
-130
-79
-142
-123
-79
-84
-82
-53
-31
-29
-33
-33
-29
-21
-9
4
12
19
16
19
41
55
60
87
116
123
130
128
108
94
106
108
65
9
-29
-55
-75
-82
-70
-65
-77
-75
-65
-65
-67
-60
-50
-58
-77
-67
-33
-19
-36
-43
-31
-26
-29
-26
-24
-24
-19
-21
-38
-43
-38
-41
-41
-36
-21
-24
-43
-33
-16
-19
-21
-19
-21
-19
-12
-14
-19
-4
4
-9
-16
-7
-9
-16
-9
9
12
14
33
55
48
24
7
7
9
14
14
16
33
41
36
33
19
19
43
41
19
84
331
723
1036
825
-7
-486
-142
33
-169
-159
-58
-92
-106
-67
-70
-87
-70
-62
-72
-53
-29
-29
-29
-24
-16
2
7
-2
12
29
36
53
67
67
87
116
113
104
106
84
46
21
-9
-60
-96
-118
-142
-145
-125
-116
-128
-133
-116
-99
-99
-104
-89
-79
-87
-94
-94
-84
-72
-65
-75
-84
-67
-50
-55
-70
-70
-67
-70
-70
-75
-87
-106
-106
-89
-87
-94
-108
-123
-106
-94
-108
-111
-94
-87
-82
-82
-92
-96
-79
-60
-53
-46
-36
-38
-55
-72
-72
-84
-106
-111
-108
-111
-104
-92
-92
-101
-101
-101
-108
-123
-60
191
585
920
779
-33
-593
-288
-72
-268
-263
-159
-200
-215
-167
-157
-162
-147
-145
-138
-128
-128
-116
-99
-94
-92
-84
-84
-72
-53
-43
-48
-38
-7
14
24
36
48
58
58
53
38
2
-50
-96
-121
-140
-152
-157
-159
-147
-138
-142
-135
-121
-113
-106
-101
-96
-84
-70
-62
-62
-58
-46
-43
-38
-26
-19
-19
-9
-7
-14
-14
-9
-7
-4
-7
-9
-9
-9
-16
-9
-9
-21
-21
-9
-12
-16
-19
-16
-4
9
12
16
16
9
0
-24
-43
-43
-38
-41
-38
-38
-38
-36
-41
-38
-24
-26
-31
-38
-55
46
380
774
900
430
-360
-506
-92
-55
-220
-140
-82
-125
-101
-72
-89
-79
-60
-58
-53
-48
-46
-41
-33
-26
-24
-21
-21
-33
-38
-7
19
21
31
48
58
70
79
70
58
53
33
2
-33
-70
-99
-113
-128
-130
-130
-133
-133
-123
-108
-101
-101
-94
-89
-84
-67
-58
-55
-46
-48
-60
-60
-50
-50
-58
-67
-70
-58
-43
-50
-62
-62
-58
-50
-46
-58
-65
-65
-62
-60
-67
-77
-79
-89
-94
-92
-82
-70
-72
-75
-58
-48
-55
-72
-96
-106
-99
-92
-94
-94
-92
-84
-89
-92
-84
-82
-92
-99
-70
121
510
871
849
164
-583
-464
-82
-203
-314
-191
-174
-215
-176
-154
-167
-154
-140
-140
-128
-116
-128
-130
-123
-116
-106
-106
-101
-79
-55
-50
-48
-43
-38
-31
-24
-19
-19
-24
-31
-43
-70
-106
-140
-162
-176
-184
-188
-191
-198
-203
-193
-181
-171
-159
-147
-150
-159
-154
-140
-133
-138
-133
-113
-99
-94
-89
-96
-113
-118
-106
-101
-113
-125
-125
-135
-140
-123
-116
-121
-128
-140
-152
-152
-152
-159
-150
-140
-140
-123
-104
-106
-99
-92
-101
-111
-123
-135
-133
-130
-135
-130
-145
-174
-164
-140
-142
-142
-135
-147
-147
-24
290
694
907
481
-384
-600
-186
-154
-343
-256
-181
-234
-217
-171
-174
-171
-145
-130
-123
-113
-106
-108
-118
-113
-99
-94
-89
-77
-67
-60
-46
-38
-36
-26
-7
0
-2
2
2
-9
-29
-67
-111
-138
-159
-179
-184
-186
-184
-176
-164
-150
-140
-142
-140
-130
-116
-106
-101
-101
-99
-94
-94
-87
-77
-87
-89
-87
-84
-70
-58
-60
-67
-70
-65
-60
-58
-62
-67
-58
-53
-62
-65
-72
-99
-106
-77
-65
-79
-77
-67
-65
-55
-58
-77
-84
-87
-89
-75
-67
-77
-84
-84
-75
-65
-67
-72
-84
-48
184
602
939
803
9
-607
-329
-41
-230
-261
-130
-154
-191
-140
-123
-138
-121
-104
-104
-101
-99
-101
-96
-89
-82
-72
-62
-60
-48
-24
-4
12
29
29
21
29
48
55
36
9
-16
-50
-94
-128
-164
-205
-220
-215
-220
-227
-225
-230
-242
-237
-220
-213
-215
-210
-203
-196
-186
-167
-157
-157
-147
-128
-111
-104
-106
-104
-99
-99
-104
-108
-116
-121
-121
-118
-121
-118
-118
-121
-121
-123
-128
-116
-92
-79
-77
-79
-84
-87
-101
-116
-116
-113
-118
-118
-118
-116
-111
-113
-118
-123
-135
-140
-116
29
360
740
900
414
-443
-566
-138
-152
-329
-230
-176
-232
-210
-174
-186
-181
-157
-147
-135
-125
-121
-101
-87
-87
-84
-79
-67
-60
-60
-55
-33
-16
-14
-4
14
26
31
29
16
2
-24
-62
-108
-157
-186
-186
-188
-196
-188
-179
-176
-179
-179
-186
-193
-184
-169
-164
-162
-152
-142
-140
-125
-116
-116
-118
-121
-128
-130
-125
-116
-123
-123
-113
-111
-99
-79
-87
-108
-101
-94
-101
-101
-96
-94
-77
-72
-82
-87
-92
-106
-123
-133
-128
-121
-125
-128
-123
-121
-123
-125
-130
-133
-130
-145
-162
-94
154
530
801
607
-154
-634
-322
-101
-271
-271
-169
-196
-213
-171
-169
-176
-152
-142
-154
-138
-113
-118
-113
-101
-104
-99
-87
-87
-82
-67
-58
-43
-26
-14
-2
2
-4
-9
-9
-21
-48
-87
-118
-150
-179
-193
-198
-208
-217
-205
-188
-181
-171
-164
-159
-145
-125
-118
-123
-111
-104
-108
-101
-89
-89
-84
-70
-62
-65
-75
-84
-79
-75
-82
-84
-79
-89
-101
-94
-79
-75
-79
-77
-53
-33
-26
-19
-4
4
0
-7
-33
-62
-77
-92
-92
-82
-75
-72
-67
-70
-75
-77
-72
-92
-99
58
414
791
915
382
-467
-539
-104
-147
-312
-191
-147
-208
-179
-140
-147
-145
-125
-118
-118
-118
-108
-99
-92
-77
-79
-89
-79
-67
-65
-53
-29
-16
-4
21
29
26
29
19
2
-9
-33
-75
-121
-159
-191
-205
-208
-215
-217
-210
-208
-215
-210
-210
-220
-213
-186
-179
-176
-159
-150
-145
-133
-128
-125
-123
-118
-123
-138
-140
-133
-135
-142
-145
-147
-147
-147
-142
-147
-157
-162
-164
-159
-150
-138
-130
-128
-125
-128
-135
-147
-152
-145
-133
-130
-128
-123
-130
-135
-123
-118
-125
-130
-133
-43
254
670
927
605
-276
-658
-234
-84
-295
-249
-167
-237
-234
-169
-159
-164
-145
-133
-125
-108
-99
-99
-94
-82
-70
-62
-58
-48
-36
-21
-7
-4
9
29
29
24
29
31
29
12
-21
-60
-101
-138
-164
-188
-203
-193
-179
-181
-181
-176
-169
-154
-140
-135
-128
-121
-125
-121
-104
-99
-106
-106
-101
-99
-94
-96
-106
-108
-113
-121
-123
-125
-128
-125
-128
-135
-133
-133
-138
-128
-111
-101
-99
-96
-99
-106
-123
-135
-140
-145
-145
-142
-135
-128
-123
-121
-113
-99
-87
-87
-96
-65
138
513
832
767
72
-605
-438
-101
-237
-309
-193
-203
-246
-203
-176
-188
-174
-154
-150
-138
-130
-123
-108
-104
-106
-101
-92
-84
-79
-70
-60
-62
-62
-55
-53
-50
-36
-33
-53
-58
-55
-82
-111
-140
-169
-179
-176
-181
-186
-184
-188
-184
-169
-159
-152
-140
-128
-121
-128
-125
-111
-108
-111
-101
-96
-101
-106
-111
-108
-108
-113
-118
-123
-133
-138
-135
-128
-128
-133
-128
-118
-130
-135
-106
-79
-77
-77
-82
-101
-113
-113
-111
-108
-113
-118
-121
-118
-125
-138
-145
-142
-142
-157
-164
-19
358
791
910
307
-549
-573
-140
-181
-331
-227
-179
-230
-213
-171
-169
-169
-152
-128
-113
-108
-101
-89
-72
-70
-87
-84
-60
-53
-58
-48
-31
-19
-14
-9
-4
2
7
12
7
-2
-26
-67
-111
-145
-174
-191
-198
-215
-225
-215
-198
-193
-186
-184
-186
-186
-176
-174
-181
-184
-179
-174
-167
-179
-200
-203
-193
-186
-184
-184
-188
-191
-186
-181
-186
-191
-198
-208
-210
-200
-184
-169
-162
-154
-140
-133
-130
-140
-157
-159
-150
-154
-159
-154
-159
-174
-169
-150
-138
-140
-154
-123
84
469
828
820
125
-605
-443
-82
-220
-305
-184
-181
-220
-171
-147
-169
-162
-133
-130
-140
-145
-145
-147
-147
-138
-128
-133
-140
-121
-101
-87
-70
-53
-36
-19
-2
9
4
0
-4
-21
-58
-104
-140
-164
-186
-203
-205
-198
-191
-184
-179
-169
-164
-164
-162
-154
-152
-145
-133
-130
-128
-130
-133
-123
-116
-111
-108
-116
-128
-128
-130
-128
-125
-125
-125
-130
-140
-145
-152
-159
-147
-147
-152
-130
-116
-118
-121
-125
-135
-128
-121
-130
-130
-123
-133
-135
-130
-142
-147
-133
-140
-116
104
508
837
716
-31
-617
-363
-82
-232
-266
-159
-176
-200
-152
-123
-125
-123
-121
-118
-106
-92
-89
-89
-79
-62
-50
-43
-41
-36
-29
-16
4
24
41
55
58
70
79
60
36
24
-19
-79
-101
-116
-140
-147
-147
-152
-140
-133
-135
-128
-118
-116
-111
-96
-84
-79
-79
-70
-60
-62
-60
-62
-62
-50
-46
-46
-46
-67
-82
-65
-62
-75
-77
-87
-94
-82
-65
-55
-62
-65
-55
-55
-75
-89
-101
-106
-99
-94
-94
-96
-111
-123
-113
-106
-118
-123
-133
-96
135
542
874
777
4
-660
-406
-92
-271
-314
-191
-215
-242
-184
-171
-186
-176
-179
-188
-186
-188
-191
-188
-181
-169
-157
-152
-140
-121
-106
-94
-79
-55
-36
-29
-21
-12
-19
-38
-60
-92
-135
-179
-210
-232
-254
-266
-261
-249
-244
-239
-234
-225
-215
-200
-188
-181
-174
-162
-152
-138
-125
-130
-140
-135
-125
-121
-116
-116
-121
-128
-138
-135
-125
-125
-125
-123
-123
-116
-106
-101
-89
-77
-75
-84
-99
-108
-125
-152
-157
-142
-140
-140
-128
-123
-125
-123
-116
-116
-116
-118
-135
-121
55
411
757
782
154
-566
-469
-121
-225
-307
-196
-188
-227
-188
-162
-176
-171
-159
-157
-150
-138
-135
-130
-123
-118
-108
-94
-84
-79
-65
-48
-43
-41
-29
-14
-9
-9
-4
-9
-21
-33
-60
-101
-135
-159
-174
-186
-210
-215
-193
-184
-188
-181
-171
-159
-145
-135
-140
-145
-138
-128
-123
-121
-125
-130
-123
-111
-111
-111
-106
-106
-104
-99
-99
-101
-101
-113
-133
-130
-111
-94
-79
-79
-79
-65
-62
-87
-121
-142
-140
-133
-135
-138
-135
-130
-130
-133
-125
-116
-113
-121
-111
41
389
755
844
309
-481
-527
-106
-128
-268
-179
-154
-200
-157
-123
-140
-123
-96
-96
-92
-77
-77
-87
-79
-55
-46
-55
-48
-29
-9
7
19
21
43
77
89
94
104
87
48
24
4
-41
-87
-123
-152
-162
-150
-140
-142
-147
-157
-152
-138
-138
-135
-121
-113
-118
-113
-104
-96
-99
-96
-87
-79
-75
-79
-84
-82
-89
-94
-92
-94
-101
-113
-130
-133
-116
-96
-94
-87
-77
-72
-67
-79
-108
-123
-121
-121
-128
-135
-140
-142
-142
-138
-140
-142
-150
-164
-125
99
491
825
757
29
-634
-414
-87
-246
-307
-188
-198
-227
-176
-159
-179
-174
-164
-169
-157
-147
-159
-169
-162
-152
-152
-157
-142
-116
-101
-92
-77
-65
-36
-9
-7
-2
4
4
-4
-36
-82
-125
-159
-181
-193
-208
-220
-217
-210
-205
-198
-198
-200
-191
-179
-164
-154
-147
-142
-133
-121
-113
-111
-111
-108
-106
-113
-116
-99
-87
-89
-96
-99
-96
-96
-101
-113
-118
-111
-92
-75
-70
-70
-77
-87
-104
-123
-130
-133
-145
-154
-152
-145
-142
-150
-162
-164
-157
-164
-176
-82
217
624
864
525
-336
-692
-285
-152
-343
-292
-193
-232
-225
-169
-171
-181
-159
-147
-142
-125
-113
-96
-92
-113
-113
-87
-77
-77
-72
-77
-65
-38
-19
4
29
29
29
43
43
21
-12
-62
-113
-145
-164
-179
-196
-208
-198
-179
-174
-171
-159
-154
-150
-142
-133
-128
-128
-125
-116
-104
-96
-108
-130
-130
-121
-123
-130
-138
-145
-152
-145
-133
-128
-133
-145
-154
-145
-128
-113
-104
-92
-79
-77
-84
-96
-111
-123
-125
-125
-128
-121
-116
-125
-125
-116
-113
-125
-140
-89
135
518
859
777
12
-627
-382
-94
-256
-292
-186
-210
-237
-186
-167
-186
-184
-167
-157
-152
-145
-135
-128
-121
-113
-104
-96
-84
-72
-58
-41
-26
-16
-2
0
-7
-2
4
-2
-26
-58
-94
-140
-188
-210
-210
-210
-208
-200
-191
-184
-179
-179
-184
-186
-176
-164
-164
-162
-157
-154
-152
-147
-145
-142
-135
-130
-135
-138
-135
-133
-130
-128
-133
-133
-130
-125
-128
-130
-130
-135
-125
-111
-113
-121
-121
-128
-133
-145
-159
-164
-154
-150
-154
-154
-147
-138
-130
-138
-150
-157
-157
-121
79
447
767
721
48
-614
-460
-142
-259
-314
-210
-220
-242
-200
-184
-186
-176
-167
-159
-157
-154
-140
-123
-121
-116
-101
-84
-75
-67
-53
-33
-21
-7
24
38
29
36
53
53
33
4
-31
-72
-111
-140
-147
-152
-174
-181
-164
-154
-157
-157
-157
-142
-130
-133
-130
-116
-116
-113
-113
-121
-113
-106
-113
-123
-118
-118
-133
-128
-113
-123
-130
-116
-111
-133
-152
-152
-152
-140
-125
-133
-138
-130
-140
-154
-162
-176
-186
-171
-167
-179
-184
-191
-200
-193
-179
-176
-193
-217
-198
-19
341
706
779
198
-583
-568
-174
-242
-360
-239
-215
-261
-220
-191
-203
-186
-167
-164
-152
-130
-123
-123
-121
-125
-130
-125
-104
-87
-92
-77
-46
-31
-16
0
7
14
24
16
9
4
-26
-79
-121
-150
-171
-188
-196
-198
-200
-205
-205
-198
-184
-169
-159
-152
-150
-150
-133
-111
-111
-106
-87
-72
-60
-55
-60
-60
-53
-50
-48
-38
-33
-36
-41
-46
-60
-77
-75
-67
-50
-33
-46
-50
-33
-33
-60
-84
-92
-104
-135
-164
-159
-150
-145
-145
-152
-138
-121
-125
-138
-133
-14
290
680
886
496
-341
-585
-186
-121
-295
-222
-152
-205
-193
-138
-145
-157
-135
-123
-133
-128
-111
-116
-130
-125
-111
-94
-89
-84
-77
-72
-55
-31
-14
-4
19
38
26
12
14
9
-21
-62
-106
-152
-171
-179
-200
-205
-184
-176
-179
-179
-179
-181
-186
-174
-159
-154
-154
-147
-142
-135
-123
-118
-118
-116
-106
-99
-106
-111
-99
-96
-96
-87
-87
-113
-123
-108
-99
-94
-82
-79
-87
-82
-72
-87
-106
-116
-128
-135
-130
-123
-125
-142
-150
-135
-128
-133
-133
-140
-147
-70
205
607
898
697
-123
-648
-319
-94
-292
-292
-174
-203
-222
-174
-162
-176
-181
-181
-169
-150
-147
-154
-145
-125
-116
-118
-116
-106
-87
-67
-55
-48
-36
-21
-7
2
12
7
-7
-19
-41
-79
-123
-157
-184
-196
-203
-213
-217
-217
-217
-210
-193
-184
-184
-181
-171
-162
-159
-150
-138
-130
-130
-133
-125
-118
-121
-123
-130
-133
-128
-130
-140
-150
-159
-154
-147
-147
-150
-154
-157
-145
-133
-140
-135
-125
-133
-150
-162
-171
-174
-167
-162
-167
-171
-169
-169
-171
-164
-157
-159
-167
-154
-4
338
704
803
288
-493
-554
-171
-220
-360
-254
-210
-249
-217
-188
-205
-191
-162
-162
-169
-162
-145
-125
-118
-111
-106
-101
-96
-104
-108
-82
-50
-41
-21
-9
-14
-7
2
0
-4
-29
-75
-118
-150
-184
-215
-227
-242
-249
-239
-225
-222
-217
-205
-196
-186
-176
-164
-150
-140
-138
-135
-125
-118
-130
-133
-113
-101
-111
-118
-106
-92
-96
-116
-125
-123
-118
-121
-121
-123
-123
-108
-94
-87
-79
-87
-104
-113
-123
-128
-125
-128
-135
-133
-123
-118
-121
-121
-123
-128
-130
-142
-79
179
571
871
692
-130
-685
-372
-154
-358
-353
-237
-271
-278
-227
-230
-234
-205
-198
-203
-188
-174
-169
-147
-123
-116
-118
-113
-96
-79
-72
-72
-70
-58
-53
-50
-41
-38
-53
-58
-55
-70
-104
-150
-188
-210
-220
-227
-225
-225
-234
-230
-213
-203
-203
-208
-208
-193
-171
-171
-174
-164
-157
-150
-135
-128
-133
-145
-147
-138
-133
-130
-135
-145
-150
-150
-150
-145
-145
-157
-159
-154
-145
-123
-106
-116
-123
-116
-116
-128
-145
-152
-147
-142
-142
-142
-135
-128
-135
-138
-128
-121
-133
-138
-43
251
656
936
653
-237
-651
-261
-130
-336
-288
-196
-249
-244
-188
-193
-200
-176
-162
-159
-152
-147
-147
-142
-140
-140
-135
-125
-113
-99
-87
-70
-55
-50
-41
-24
-16
-12
-14
-26
-36
-60
-104
-142
-179
-215
-234
-237
-227
-220
-217
-213
-203
-191
-179
-162
-135
-138
-167
-150
-104
-101
-116
-104
-94
-92
-77
-77
-94
-101
-96
-96
-94
-92
-99
-106
-106
-113
-121
-121
-128
-135
-123
-106
-96
-89
-94
-101
-106
-125
-154
-162
-152
-154
-157
-150
-147
-159
-162
-150
-154
-176
-186
-164
-12
329
721
866
341
-503
-595
-188
-208
-358
-273
-242
-273
-220
-186
-213
-210
-193
-198
-196
-174
-167
-167
-154
-142
-142
-133
-111
-99
-92
-82
-67
-46
-21
-12
-9
2
14
21
21
-9
-60
-89
-111
-154
-176
-174
-181
-184
-164
-145
-159
-186
-174
-147
-157
-157
-128
-121
-123
-118
-123
-133
-125
-99
-82
-79
-77
-70
-67
-75
-84
-87
-87
-92
-106
-113
-106
-104
-108
-99
-84
-84
-94
-94
-96
-101
-111
-138
-159
-164
-157
-164
-184
-184
-167
-167
-176
-162
-145
-154
-174
-154
14
377
762
866
307
-527
-585
-174
-215
-368
-263
-217
-242
-188
-142
-147
-138
-121
-125
-128
-113
-104
-99
-89
-96
-111
-108
-89
-72
-62
-46
-33
-16
7
29
43
43
31
2
-33
-62
-92
-135
-184
-217
-222
-208
-186
-179
-181
-174
-164
-157
-140
-128
-121
-106
-96
-89
-77
-75
-84
-75
-60
-55
-50
-50
-58
-62
-67
-70
-72
-77
-84
-87
-99
-104
-96
-99
-111
-108
-104
-94
-84
-84
-82
-77
-79
-89
-104
-128
-140
-138
-130
-133
-135
-135
-133
-128
-125
-125
-121
-130
-84
150
561
951
920
128
-610
-404
-87
-259
-314
-188
-188
-205
-159
-147
-152
-133
-123
-128
-128
-130
-133
-123
-123
-133
-128
-118
-118
-106
-77
-55
-41
-29
-21
-2
21
21
14
9
-7
-26
-53
-96
-150
-193
-208
-198
-193
-191
-179
-164
-159
-159
-159
-152
-145
-138
-128
-118
-106
-106
-111
-101
-94
-104
-99
-79
-84
-111
-118
-113
-121
-142
-154
-145
-135
-152
-174
-184
-181
-174
-164
-154
-147
-147
-147
-150
-164
-174
-181
-193
-200
-196
-186
-181
-171
-162
-157
-147
-140
-147
-89
154
537
859
765
-12
-653
-397
-116
-300
-331
-200
-217
-254
-208
-181
-191
-181
-157
-154
-152
-135
-123
-118
-113
-108
-104
-96
-84
-75
-67
-65
-53
-31
-12
-2
2
2
-4
-16
-24
-38
-72
-121
-159
-176
-188
-198
-205
-208
-208
-203
-191
-176
-167
-164
-157
-147
-142
-138
-140
-150
-152
-154
-157
-152
-152
-167
-179
-174
-174
-184
-191
-196
-200
-196
-188
-191
-200
-200
-186
-167
-154
-159
-167
-159
-167
-181
-188
-203
-213
-210
-210
-213
-215
-220
-220
-215
-208
-203
-198
-205
-210
-125
150
530
794
600
-174
-651
-307
-79
-273
-276
-164
-196
-227
-196
-186
-188
-174
-162
-159
-154
-154
-152
-147
-147
-140
-121
-111
-96
-62
-38
-33
-19
-2
4
14
19
21
29
31
29
12
-29
-72
-106
-145
-167
-154
-150
-157
-154
-147
-142
-125
-111
-113
-128
-140
-128
-111
-108
-106
-94
-84
-82
-79
-79
-79
-79
-84
-89
-89
-94
-101
-111
-125
-123
-125
-138
-135
-108
-87
-89
-89
-84
-96
-113
-130
-140
-135
-133
-145
-150
-152
-157
-164
-171
-181
-186
-186
-191
-164
26
397
762
798
142
-627
-525
-145
-271
-380
-249
-227
-278
-259
-237
-234
-222
-213
-217
-215
-205
-198
-198
-200
-196
-191
-188
-174
-162
-142
-123
-111
-92
-70
-53
-46
-48
-55
-55
-53
-65
-94
-128
-159
-179
-186
-188
-193
-198
-203
-208
-200
-191
-198
-198
-191
-184
-176
-164
-159
-159
-150
-135
-128
-121
-111
-116
-121
-116
-111
-116
-123
-125
-121
-125
-130
-123
-125
-138
-128
-104
-99
-106
-96
-89
-96
-116
-128
-135
-142
-142
-142
-152
-145
-138
-142
-145
-138
-138
-142
-147
-70
215
631
915
653
-203
-658
-288
-106
-300
-278
-181
-232
-246
-193
-179
-176
-159
-147
-145
-142
-128
-101
-89
-99
-99
-82
-70
-65
-55
-46
-38
-33
-19
-9
-21
-19
-2
-4
-31
-48
-58
-82
-108
-147
-193
-203
-191
-203
-210
-203
-203
-196
-181
-174
-159
-145
-152
-162
-147
-133
-135
-121
-108
-123
-116
-89
-94
-111
-113
-123
-123
-111
-111
-116
-113
-118
-133
-140
-108
-70
-79
-96
-82
-79
-111
-133
-128
-125
-138
-142
-147
-152
-154
-157
-176
-193
-184
-174
-174
-75
234
636
859
522
-336
-685
-263
-140
-353
-290
-200
-276
-273
-200
-193
-213
-200
-184
-176
-164
-157
-154
-150
-142
-133
-113
-96
-94
-99
-92
-72
-50
-31
-21
-19
-21
-21
-24
-31
-55
-89
-111
-128
-171
-200
-200
-213
-217
-193
-184
-193
-193
-181
-171
-157
-142
-145
-145
-116
-92
-96
-99
-99
-116
-116
-94
-94
-106
-121
-121
-106
-116
-142
-138
-128
-138
-135
-125
-130
-123
-113
-94
-62
-79
-135
-142
-111
-118
-138
-138
-138
-154
-174
-171
-157
-162
-167
-154
-167
-176
-33
309
704
876
384
-484
-612
-193
-210
-382
-283
-225
-266
-234
-198
-210
-203
-181
-181
-186
-176
-174
-174
-154
-140
-138
-140
-140
-116
-87
-84
-82
-70
-58
-62
-75
-67
-53
-55
-87
-121
-123
-123
-157
-210
-232
-225
-213
-213
-227
-222
-186
-171
-181
-169
-145
-147
-147
-116
-99
-104
-94
-87
-84
-62
-43
-55
-67
-65
-60
-67
-70
-70
-82
-75
-53
-43
-41
-46
-62
-60
-21
4
-16
-53
-67
-58
-50
-72
-92
-65
-53
-72
-67
-67
-99
-99
-79
-79
48
397
777
907
399
-445
-549
-123
-128
-280
-193
-142
-164
-147
-154
-171
-130
-84
-94
-116
-101
-72
-70
-92
-87
-53
-46
-60
-50
-14
9
9
14
16
4
33
77
46
-2
12
9
-38
-75
-94
-116
-128
-142
-162
-164
-152
-152
-171
-184
-162
-116
-106
-135
-152
-142
-130
-128
-128
-118
-99
-92
-108
-116
-116
-128
-116
-106
-133
-123
-89
-123
-142
-87
-55
-82
-96
-70
-75
-118
-125
-106
-113
-135
-140
-121
-116
-140
-130
-108
-128
-142
-130
-125
-4
348
765
893
334
-508
-576
-191
-239
-368
-259
-225
-276
-251
-234
-249
-203
-142
-167
-196
-157
-142
-171
-162
-145
-152
-138
-111
-96
-84
-77
-67
-48
-65
-84
-60
-55
-62
-43
-41
-58
-77
-108
-128
-142
-171
-167
-188
-249
-227
-184
-186
-164
-138
-140
-135
-130
-135
-133
-111
-84
-72
-75
-99
-121
-116
-113
-121
-118
-111
-123
-142
-140
-128
-130
-138
-104
-77
-101
-125
-113
-99
-128
-159
-150
-142
-159
-154
-123
-111
-130
-150
-138
-111
-125
-186
-179
33
423
777
806
150
-648
-566
-164
-278
-404
-256
-213
-295
-268
-196
-217
-244
-200
-164
-181
-198
-140
-89
-145
-164
-106
-99
-108
-87
-70
-67
-87
-82
-33
-24
-46
-29
-14
-36
-50
-60
-108
-169
-208
-234
-249
-246
-254
-263
-256
-244
-242
-239
-239
-239
-234
-222
-203
-184
-176
-186
-191
-188
-181
-181
-184
-188
-184
-171
-176
-191
-193
-184
-191
-210
-200
-167
-133
-113
-121
-128
-121
-125
-142
-142
-142
-142
-138
-133
-135
-142
-138
-133
-130
-138
-159
-138
65
445
815
840
150
-614
-491
-135
-268
-358
-246
-251
-280
-225
-200
-215
-208
-188
-184
-181
-174
-174
-171
-154
-145
-138
-123
-116
-123
-123
-99
-70
-62
-60
-53
-48
-48
-60
-75
-79
-96
-142
-179
-196
-217
-230
-230
-237
-230
-203
-193
-200
-193
-179
-176
-179
-164
-135
-138
-159
-154
-135
-125
-118
-123
-135
-121
-72
-38
-75
-147
-203
-220
-184
-140
-128
-116
-87
-67
-58
-55
-75
-92
-77
-84
-113
-108
-116
-140
-138
-118
-104
-96
-92
-104
-121
-38
244
646
951
733
-108
-583
-256
-99
-283
-246
-147
-176
-154
-92
-92
-94
-75
-58
-50
-50
-41
-21
-12
-2
9
21
31
29
19
16
33
58
65
67
89
87
58
31
0
-29
-65
-125
-174
-198
-222
-246
-244
-232
-225
-222
-225
-210
-186
-162
-154
-162
-164
-162
-167
-159
-138
-135
-147
-142
-133
-125
-113
-118
-133
-138
-130
-118
-121
-130
-121
-92
-82
-94
-106
-99
-94
-113
-123
-108
-101
-106
-111
-113
-111
-101
-96
-104
-118
-111
21
368
794
966
438
-460
-585
-123
-130
-317
-191
-94
-135
-106
-46
-31
-9
14
14
38
101
140
150
186
242
280
331
418
508
583
668
769
871
968
1074
1162
1210
1244
1283
1304
1309
1312
1295
1273
1256
1232
1217
1217
1210
1203
1186
1179
1176
1142
1120
1159
1169
1094
1033
1009
966
910
866
813
752
709
668
607
564
544
518
476
445
414
372
341
324
300
271
263
263
259
234
208
200
191
174
186
208
193
167
186
213
208
196
193
198
302
590
973
1215
874
-4
-334
72
184
2
36
92
55
62
77
58
46
41
48
55
36
43
79
96
92
96
108
121
142
162
174
205
239
249
266
297
319
348
375
355
326
314
302
283
254
232
234
242
230
225
246
249
237
234
230
213
188
152
116
87
60
26
-7
-29
-53
-79
-77
-79
-116
-140
-142
-154
-162
-162
-157
-147
-152
-169
-193
-215
-220
-225
-249
-271
-254
-237
-254
-256
-244
-244
-244
-227
-220
-227
-188
46
476
830
694
-108
-721
-435
-162
-358
-370
-234
-246
-234
-147
-118
-123
-79
-19
12
41
75
87
89
99
128
152
179
227
280
334
406
460
486
527
568
583
583
578
568
539
501
472
443
426
411
389
384
389
384
360
331
314
288
232
171
130
92
24
-55
-87
-87
-118
-157
-171
-188
-200
-200
-200
-208
-217
-222
-227
-242
-246
-244
-242
-237
-244
-268
-288
-302
-305
-302
-292
-285
-283
-263
-246
-280
-292
-246
-225
-239
-230
-188
-174
-84
232
663
932
629
-227
-581
-157
-33
-237
-157
-36
-79
-58
24
33
21
33
55
79
96
113
123
135
157
169
159
147
157
186
196
186
196
220
227
225
227
225
225
217
184
130
72
12
-36
-53
-72
-121
-138
-111
-135
-188
-213
-230
-251
-251
-254
-266
-276
-292
-295
-280
-288
-309
-317
-326
-336
-329
-329
-346
-351
-343
-346
-355
-351
-326
-312
-302
-278
-263
-276
-283
-276
-283
-297
-285
-268
-249
-239
-266
-273
-244
-249
-263
-239
-200
-38
343
772
888
285
-556
-537
-104
-188
-334
-181
-123
-171
-128
-94
-111
-99
-89
-104
-104
-77
-62
-75
-70
-38
-19
-14
0
14
21
48
82
89
92
116
128
123
116
111
96
62
12
-55
-121
-147
-169
-225
-273
-263
-246
-278
-307
-309
-326
-346
-338
-343
-360
-358
-348
-334
-319
-338
-375
-389
-382
-360
-351
-380
-401
-394
-387
-377
-365
-368
-358
-336
-324
-307
-283
-283
-292
-290
-288
-295
-297
-300
-288
-266
-266
-278
-263
-251
-276
-278
-246
-251
-198
82
515
874
692
-217
-789
-428
-210
-421
-401
-280
-319
-326
-273
-261
-263
-259
-266
-256
-237
-230
-227
-227
-230
-217
-188
-167
-159
-147
-128
-121
-108
-87
-79
-84
-84
-94
-106
-106
-116
-159
-208
-230
-239
-251
-251
-246
-242
-230
-220
-217
-213
-210
-205
-200
-200
-191
-181
-191
-198
-191
-186
-186
-191
-200
-210
-217
-225
-234
-254
-271
-261
-249
-251
-242
-237
-251
-251
-232
-215
-205
-203
-215
-225
-225
-239
-263
-268
-268
-278
-280
-278
-276
-288
-302
-300
-302
-324
-341
-244
55
460
702
329
-583
-920
-513
-433
-634
-564
-498
-581
-571
-513
-522
-518
-486
-474
-464
-440
-423
-411
-406
-397
-375
-358
-348
-331
-312
-295
-271
-244
-225
-215
-200
-191
-193
-191
-181
-193
-227
-268
-300
-322
-331
-329
-329
-331
-324
-317
-312
-309
-309
-309
-305
-290
-276
-273
-280
-276
-268
-266
-268
-273
-271
-268
-266
-268
-268
-276
-285
-273
-268
-288
-290
-292
-305
-307
-305
-288
-263
-276
-297
-288
-276
-285
-297
-307
-312
-307
-309
-314
-312
-305
-305
-302
-292
-300
-317
-227
79
496
765
457
-450
-871
-457
-317
-544
-493
-382
-428
-423
-370
-377
-382
-358
-348
-351
-343
-338
-336
-329
-322
-309
-297
-297
-288
-271
-261
-239
-213
-198
-188
-174
-167
-171
-179
-186
-203
-242
-273
-297
-324
-338
-338
-338
-334
-322
-312
-307
-297
-290
-290
-292
-290
-292
-302
-295
-276
-271
-268
-263
-259
-242
-227
-220
-210
-215
-239
-256
-261
-271
-285
-297
-312
-324
-324
-322
-322
-319
-322
-334
-353
-368
-382
-406
-418
-409
-399
-401
-404
-404
-392
-380
-372
-370
-380
-394
-309
-24
389
680
430
-421
-874
-486
-290
-493
-467
-363
-404
-406
-358
-363
-375
-353
-341
-343
-329
-302
-288
-283
-266
-251
-244
-237
-227
-220
-208
-191
-176
-167
-171
-167
-145
-135
-133
-128
-150
-196
-225
-234
-246
-271
-290
-283
-261
-263
-280
-278
-268
-263
-251
-239
-234
-230
-230
-220
-205
-193
-186
-184
-188
-181
-167
-167
-174
-184
-196
-198
-196
-198
-200
-208
-217
-208
-191
-193
-196
-186
-174
-167
-164
-159
-164
-169
-169
-179
-184
-179
-184
-198
-205
-205
-205
-198
-193
-213
-222
-101
232
653
857
401
-493
-699
-261
-239
-455
-368
-288
-360
-355
-312
-341
-360
-338
-341
-346
-319
-305
-302
-288
-278
-292
-292
-266
-239
-227
-225
-203
-179
-167
-154
-142
-145
-147
-147
-152
-154
-176
-227
-268
-285
-302
-314
-317
-319
-326
-322
-317
-319
-324
-319
-305
-297
-285
-266
-251
-237
-222
-213
-210
-210
-208
-196
-181
-171
-162
-154
-159
-167
-181
-193
-191
-181
-184
-196
-205
-208
-208
-210
-208
-198
-191
-200
-205
-198
-200
-203
-203
-203
-205
-220
-222
-77
278
690
842
278
-602
-660
-232
-283
-438
-329
-297
-355
-324
-290
-302
-283
-256
-259
-256
-239
-230
-225
-225
-222
-213
-203
-191
-171
-154
-150
-133
-101
-96
-101
-96
-101
-118
-128
-133
-152
-191
-232
-251
-261
-276
-278
-280
-285
-278
-271
-278
-268
-254
-246
-230
-210
-203
-200
-200
-205
-205
-196
-188
-191
-200
-205
-205
-198
-198
-205
-208
-203
-196
-186
-181
-181
-186
-196
-188
-174
-186
-215
-227
-210
-181
-169
-164
-164
-174
-176
-169
-176
-181
-176
-181
-188
-184
-176
-176
-186
-188
-191
-196
-140
99
486
820
711
-87
-711
-421
-138
-326
-353
-230
-263
-297
-251
-244
-254
-227
-217
-225
-210
-193
-193
-193
-186
-181
-167
-159
-167
-147
-113
-116
-118
-94
-82
-87
-84
-72
-75
-94
-108
-123
-157
-191
-217
-242
-259
-256
-254
-261
-256
-244
-244
-239
-225
-210
-196
-181
-176
-184
-179
-162
-154
-157
-152
-145
-138
-135
-133
-135
-142
-145
-154
-174
-186
-191
-200
-203
-200
-203
-191
-169
-154
-150
-157
-167
-167
-167
-169
-159
-152
-150
-138
-140
-154
-167
-181
-188
-193
-215
-154
104
498
798
636
-184
-757
-435
-193
-394
-399
-285
-317
-331
-285
-273
-271
-246
-237
-239
-222
-205
-208
-188
-169
-169
-154
-133
-125
-121
-121
-123
-113
-104
-101
-99
-94
-104
-116
-113
-118
-150
-188
-222
-256
-271
-259
-249
-246
-239
-230
-225
-220
-210
-210
-215
-205
-184
-162
-142
-133
-130
-125
-118
-118
-128
-130
-125
-121
-121
-128
-142
-162
-167
-145
-142
-157
-154
-152
-157
-150
-128
-116
-113
-118
-128
-135
-130
-142
-164
-154
-150
-164
-157
-138
-150
-181
-188
-181
-196
-208
-116
162
564
830
522
-319
-680
-317
-208
-394
-355
-273
-305
-295
-254
-263
-278
-256
-230
-220
-225
-227
-220
-208
-213
-222
-208
-176
-157
-152
-150
-133
-125
-133
-133
-130
-133
-125
-108
-113
-128
-157
-191
-220
-251
-259
-242
-237
-246
-242
-225
-225
-217
-191
-179
-188
-176
-142
-150
-184
-176
-138
-133
-130
-108
-121
-128
-104
-101
-116
-99
-92
-116
-121
-108
-118
-121
-94
-87
-89
-62
-46
-55
-55
-55
-67
-89
-111
-96
-79
-101
-101
-75
-92
-123
-92
-75
-133
-142
38
416
818
917
309
-532
-525
-96
-171
-317
-203
-169
-222
-198
-159
-171
-174
-150
-140
-140
-133
-116
-113
-133
-130
-104
-96
-99
-87
-75
-67
-48
-24
-24
-19
0
0
-21
-36
-33
-41
-67
-125
-174
-162
-159
-196
-220
-198
-164
-174
-191
-184
-191
-193
-157
-140
-157
-152
-154
-164
-135
-96
-104
-128
-121
-108
-113
-118
-128
-138
-125
-113
-125
-125
-118
-125
-104
-82
-96
-104
-104
-142
-184
-167
-135
-159
-181
-150
-135
-167
-169
-135
-154
-200
-188
-55
254
658
912
590
-285
-656
-266
-147
-341
-285
-205
-268
-254
-167
-174
-230
-200
-140
-159
-191
-162
-125
-135
-164
-130
-87
-125
-142
-94
-67
-67
-43
-38
-46
-7
21
-7
-36
-38
-46
-70
-116
-145
-157
-179
-176
-198
-220
-150
-118
-176
-193
-181
-184
-164
-145
-145
-125
-121
-135
-125
-106
-123
-142
-123
-108
-111
-118
-142
-125
-87
-116
-145
-123
-128
-130
-84
-75
-96
-113
-130
-133
-121
-130
-140
-108
-96
-128
-135
-135
-118
-108
-154
-169
9
377
769
939
445
-457
-607
-184
-215
-370
-242
-208
-292
-256
-169
-169
-200
-191
-176
-176
-164
-157
-154
-142
-125
-113
-108
-108
-111
-99
-72
-48
-46
-31
0
14
12
9
2
-16
-48
-84
-123
-154
-176
-196
-222
-230
-213
-217
-222
-196
-181
-196
-188
-164
-157
-154
-154
-157
-145
-135
-138
-133
-121
-133
-130
-111
-128
-157
-154
-154
-167
-162
-135
-125
-133
-135
-133
-133
-145
-154
-140
-150
-176
-171
-152
-152
-154
-147
-157
-181
-196
-169
-138
-60
215
641
883
493
-377
-656
-232
-159
-389
-324
-220
-285
-302
-259
-254
-234
-208
-227
-249
-246
-234
-215
-210
-208
-186
-167
-159
-157
-164
-147
-108
-99
-87
-60
-62
-65
-50
-53
-62
-82
-123
-167
-203
-203
-176
-181
-217
-237
-222
-196
-188
-191
-184
-167
-145
-140
-152
-157
-133
-111
-111
-111
-111
-116
-121
-116
-92
-104
-140
-104
-82
-145
-128
-41
-29
-50
-55
-116
-198
-246
-266
-290
-351
-377
-341
-326
-353
-351
-302
-280
-288
-285
-283
-261
-125
167
476
423
-387
-1292
-1290
-1012
-1159
-1203
-1009
-934
-888
-726
-571
-489
-416
-338
-268
-186
-121
-99
-62
14
60
67
77
84
121
162
113
77
92
67
14
-24
-50
-92
-135
-179
-234
-276
-309
-351
-375
-397
-421
-416
-397
-397
-392
-375
-377
-377
-360
-355
-355
-351
-336
-307
-290
-285
-278
-276
-276
-278
-254
-227
-239
-268
-263
-225
-200
-205
-210
-181
-157
-186
-210
-198
-193
-203
-198
-181
-186
-191
-171
-164
-186
-169
-150
-184
-101
227
656
900
556
-312
-653
-256
-157
-358
-302
-217
-259
-254
-217
-213
-203
-188
-179
-169
-164
-154
-138
-150
-174
-150
-118
-133
-157
-111
-50
-60
-50
-4
-16
-14
29
36
24
36
33
12
-4
-19
4
53
60
92
140
157
200
268
297
307
338
382
416
452
474
472
491
518
539
583
593
576
605
665
726
772
820
900
970
1043
1208
1389
1462
1510
1590
1602
1585
1602
1617
1585
1527
1455
1341
1200
1055
912
757
598
476
392
411
639
985
1104
508
-387
-501
-162
-232
-389
-324
-302
-353
-341
-326
-375
-397
-368
-372
-401
-404
-387
-365
-336
-326
-336
-346
-322
-278
-256
-249
-227
-176
-125
-77
-53
-65
-41
14
36
67
133
154
162
225
329
452
549
624
769
939
1058
1152
1237
1280
1300
1317
1297
1263
1239
1179
1116
1108
1079
1028
1033
1055
1050
1062
1106
1157
1212
1271
1317
1363
1406
1409
1396
1389
1348
1271
1166
1053
956
782
515
278
101
-106
-355
-573
-723
-706
-460
-186
-263
-1009
-1784
-1685
-1367
-1525
-1600
-1457
-1452
-1467
-1382
-1346
-1336
-1290
-1258
-1215
-1164
-1150
-1113
-1055
-1016
-980
-932
-890
-852
-803
-748
-714
-709
-680
-605
-537
-513
-518
-481
-416
-428
-472
-440
-404
-414
-399
-324
-162
29
176
360
537
641
745
905
1111
1314
1520
1735
1876
1975
2108
2217
2290
2360
2416
2469
2510
2527
2544
2573
2592
2602
2600
2605
2624
2612
2566
2542
2522
2474
2423
2387
2329
2239
2149
2036
1852
1672
1518
1271
939
648
498
530
660
595
-118
-1089
-1242
-922
-1089
-1329
-1283
-1307
-1401
-1392
-1350
-1355
-1358
-1314
-1249
-1205
-1179
-1125
-1055
-995
-941
-883
-823
-774
-726
-665
-610
-556
-472
-382
-322
-215
-41
113
242
384
544
687
835
1062
1326
1520
1697
1917
2074
2176
2321
2459
2566
2709
2868
2982
3036
3074
3144
3224
3280
3321
3374
3459
3578
3699
3801
3883
3939
3972
3999
4021
4016
3977
3931
3861
3740
3573
3384
3157
2832
2462
2123
1774
1360
929
542
184
-140
-426
-721
-997
-1099
-1004
-861
-934
-1590
-2411
-2433
-2062
-2091
-2142
-1980
-1881
-1823
-1723
-1626
-1537
-1457
-1370
-1271
-1203
-1147
-1070
-990
-927
-866
-765
-648
-566
-457
-302
-142
48
242
404
552
706
861
995
1108
1210
1232
1179
1145
1135
1106
1050
1033
1048
1014
987
1009
999
929
881
890
893
866
840
825
828
832
840
869
878
881
929
963
939
929
910
818
723
639
452
154
-118
-336
-568
-779
-905
-990
-1084
-1179
-1234
-1263
-1302
-1338
-1358
-1387
-1430
-1428
-1263
-934
-578
-510
-1145
-1902
-1755
-1341
-1438
-1479
-1304
-1295
-1302
-1188
-1133
-1120
-1055
-1024
-999
-903
-832
-823
-791
-728
-690
-675
-656
-622
-595
-568
-537
-496
-464
-435
-401
-375
-358
-348
-331
-326
-365
-397
-368
-355
-392
-392
-375
-387
-384
-372
-384
-392
-399
-450
-539
-619
-675
-728
-772
-782
-757
-699
-648
-631
-600
-542
-489
-447
-406
-370
-363
-312
-227
-210
-249
-271
-242
-230
-283
-312
-249
-208
-244
-242
-184
-213
-278
-268
-266
-305
-348
-363
-217
94
394
414
-203
-956
-907
-573
-680
-774
-658
-639
-668
-617
-581
-585
-568
-510
-445
-394
-360
-326
-263
-215
-208
-193
-147
-118
-142
-164
-152
-154
-162
-142
-135
-157
-147
-113
-121
-193
-246
-237
-237
-297
-336
-322
-309
-292
-242
-181
-130
-99
-87
-67
-46
-41
-38
-33
-21
-12
-29
-46
-46
-50
-75
-89
-106
-138
-142
-118
-94
-72
-48
-26
-4
4
0
-2
-9
-26
-33
-33
-43
-33
-7
-2
-9
7
12
-14
-31
-29
46
297
673
956
767
-19
-498
-174
2
-196
-174
-60
-94
-104
-46
-48
-79
-67
-48
-55
-58
-43
-41
-43
-41
-41
-41
-36
-36
-36
-24
-4
7
24
29
-2
-24
-46
-104
-176
-251
-355
-467
-561
-639
-685
-704
-704
-660
-622
-610
-573
-527
-501
-474
-433
-394
-363
-341
-312
-283
-276
-268
-244
-225
-213
-186
-162
-147
-138
-116
-89
-87
-79
-55
-31
-24
-31
-33
-33
-55
-77
-70
-46
-29
-14
-12
-21
-31
-41
-48
-65
-60
67
375
736
886
399
-455
-598
-191
-210
-389
-295
-249
-312
-280
-220
-234
-254
-232
-222
-239
-234
-217
-225
-227
-227
-239
-234
-208
-210
-222
-210
-203
-217
-225
-225
-234
-254
-273
-295
-326
-363
-416
-479
-510
-518
-535
-549
-539
-522
-515
-520
-515
-513
-520
-525
-515
-498
-476
-464
-457
-447
-426
-414
-416
-414
-401
-387
-392
-394
-384
-387
-397
-389
-382
-382
-380
-363
-355
-377
-387
-382
-384
-397
-411
-409
-404
-409
-418
-430
-435
-426
-418
-414
-423
-443
-380
-130
239
547
392
-430
-970
-627
-406
-614
-602
-481
-518
-537
-469
-438
-452
-464
-450
-421
-418
-433
-438
-443
-443
-435
-421
-409
-409
-416
-416
-411
-423
-445
-447
-467
-496
-486
-484
-515
-552
-593
-644
-690
-733
-767
-786
-806
-832
-861
-890
-907
-927
-946
-946
-941
-934
-927
-917
-900
-881
-861
-832
-811
-811
-808
-772
-738
-750
-762
-750
-748
-738
-704
-680
-663
-629
-595
-593
-598
-585
-583
-585
-578
-571
-561
-544
-539
-535
-522
-515
-506
-493
-503
-513
-447
-213
150
455
365
-372
-999
-738
-426
-590
-627
-486
-481
-501
-440
-426
-435
-411
-404
-418
-416
-414
-416
-406
-389
-389
-404
-406
-389
-377
-368
-348
-336
-334
-319
-300
-300
-300
-300
-297
-307
-331
-363
-387
-394
-401
-409
-411
-404
-399
-399
-397
-384
-365
-348
-341
-343
-338
-322
-307
-297
-300
-305
-290
-263
-256
-263
-268
-273
-283
-285
-273
-268
-283
-295
-290
-278
-261
-244
-227
-220
-225
-234
-234
-239
-256
-263
-256
-263
-271
-259
-261
-266
-254
-246
-251
-259
-278
-237
-2
404
757
639
-181
-801
-501
-246
-445
-450
-334
-355
-348
-297
-312
-331
-307
-292
-290
-273
-263
-276
-283
-278
-283
-285
-273
-271
-273
-263
-249
-246
-237
-227
-230
-232
-234
-254
-280
-307
-343
-382
-404
-421
-443
-455
-457
-447
-433
-421
-418
-433
-452
-445
-428
-426
-428
-428
-421
-416
-418
-416
-406
-397
-399
-399
-384
-382
-392
-397
-399
-392
-372
-368
-372
-353
-326
-324
-338
-351
-358
-355
-355
-355
-346
-341
-341
-346
-343
-329
-317
-319
-322
-322
-300
-128
234
622
711
116
-687
-656
-251
-343
-476
-351
-326
-372
-331
-305
-324
-314
-297
-290
-268
-254
-251
-244
-239
-242
-234
-222
-225
-220
-205
-193
-181
-174
-176
-171
-167
-174
-188
-188
-193
-217
-244
-266
-292
-319
-319
-305
-297
-288
-278
-276
-273
-266
-256
-246
-237
-227
-205
-179
-157
-147
-140
-133
-123
-123
-125
-113
-116
-142
-150
-145
-167
-188
-188
-191
-200
-205
-200
-181
-159
-150
-162
-179
-184
-181
-186
-191
-186
-193
-213
-222
-217
-215
-210
-200
-200
-210
-205
-84
227
598
760
326
-496
-685
-271
-232
-411
-334
-263
-309
-292
-259
-288
-300
-261
-244
-251
-246
-234
-225
-210
-198
-191
-188
-181
-164
-147
-138
-133
-118
-108
-113
-113
-108
-116
-133
-145
-145
-159
-184
-196
-203
-215
-220
-213
-208
-210
-213
-208
-193
-176
-159
-145
-150
-154
-135
-111
-108
-118
-118
-116
-113
-108
-106
-104
-113
-130
-140
-147
-150
-145
-147
-154
-140
-123
-108
-94
-96
-104
-104
-108
-123
-135
-138
-138
-140
-142
-138
-130
-128
-123
-118
-128
-130
-106
31
358
743
871
346
-481
-578
-186
-210
-363
-273
-230
-276
-263
-239
-244
-242
-237
-237
-230
-215
-215
-213
-210
-215
-215
-205
-191
-188
-193
-174
-150
-157
-157
-145
-152
-169
-164
-154
-174
-196
-208
-237
-273
-280
-280
-292
-290
-278
-283
-283
-268
-266
-278
-278
-254
-232
-230
-234
-225
-205
-205
-210
-205
-203
-208
-205
-198
-198
-203
-208
-208
-208
-210
-198
-179
-171
-179
-188
-191
-188
-184
-179
-179
-176
-171
-174
-179
-196
-210
-217
-215
-220
-237
-150
140
518
757
469
-360
-728
-331
-198
-414
-382
-271
-295
-297
-256
-256
-266
-242
-225
-215
-210
-215
-205
-184
-176
-171
-162
-152
-142
-138
-135
-130
-111
-89
-89
-101
-99
-99
-111
-118
-125
-145
-176
-203
-210
-205
-208
-205
-196
-184
-179
-176
-169
-174
-174
-154
-147
-150
-135
-121
-113
-121
-133
-135
-130
-123
-118
-123
-133
-140
-142
-138
-138
-147
-150
-142
-130
-113
-101
-101
-118
-150
-164
-152
-128
-121
-138
-154
-164
-167
-167
-167
-167
-171
-186
-200
-162
36
387
736
762
84
-646
-489
-162
-331
-401
-259
-251
-290
-259
-256
-266
-246
-244
-254
-237
-215
-208
-210
-203
-186
-181
-191
-174
-152
-159
-167
-164
-159
-150
-138
-135
-147
-162
-162
-154
-171
-193
-200
-210
-232
-239
-227
-208
-196
-188
-179
-181
-186
-164
-140
-145
-147
-130
-116
-106
-99
-106
-101
-87
-94
-108
-106
-104
-106
-94
-84
-87
-99
-104
-99
-89
-87
-75
-58
-58
-72
-72
-70
-87
-92
-87
-104
-104
-82
-79
-89
-77
-58
-72
-94
-101
-67
125
508
864
791
48
-583
-338
-50
-237
-278
-133
-152
-203
-162
-145
-157
-140
-108
-89
-92
-96
-79
-79
-89
-67
-43
-41
-46
-38
-14
-2
7
26
29
26
26
-7
-43
-24
14
-4
-58
-94
-118
-130
-138
-164
-157
-108
-99
-106
-104
-121
-108
-77
-89
-99
-89
-82
-75
-77
-92
-96
-104
-116
-94
-75
-101
-108
-87
-87
-94
-92
-104
-96
-50
-24
-60
-89
-50
-31
-75
-99
-92
-67
-60
-106
-113
-58
-46
-67
-62
-70
-84
87
491
847
869
266
-527
-506
-82
-169
-334
-208
-164
-220
-176
-116
-108
-101
-87
-82
-75
-60
-62
-75
-67
-55
-55
-41
-19
-9
19
43
24
16
29
16
0
-16
-46
-82
-123
-145
-152
-205
-273
-300
-331
-372
-372
-365
-380
-375
-353
-351
-341
-319
-314
-305
-280
-263
-256
-242
-225
-220
-230
-232
-225
-217
-222
-230
-225
-220
-225
-213
-186
-188
-200
-176
-135
-128
-150
-164
-164
-164
-162
-157
-169
-186
-181
-171
-157
-135
-145
-181
-176
-162
-171
-12
394
791
811
157
-605
-522
-157
-276
-387
-244
-200
-263
-251
-220
-213
-198
-191
-184
-174
-193
-196
-150
-116
-111
-123
-140
-138
-113
-75
-43
-46
-46
-21
-19
-48
-46
-7
-2
-31
-31
-41
-94
-94
-70
-94
-79
-46
-67
-70
-53
-72
-67
-12
0
-21
-16
-12
-24
-21
-4
26
53
43
50
84
92
101
111
84
72
101
94
55
48
50
46
70
87
75
99
164
222
268
305
317
317
322
317
288
259
239
200
133
41
21
230
583
832
622
-222
-811
-527
-305
-522
-554
-443
-464
-476
-423
-416
-440
-435
-421
-401
-389
-401
-389
-355
-358
-355
-317
-317
-336
-295
-249
-246
-232
-208
-217
-239
-232
-213
-188
-188
-230
-268
-292
-319
-329
-322
-324
-324
-317
-322
-312
-292
-280
-288
-307
-288
-239
-242
-268
-254
-230
-210
-203
-213
-217
-198
-176
-176
-188
-184
-167
-164
-169
-135
-104
-116
-125
-92
-53
-46
-7
62
60
67
169
210
154
154
191
176
162
171
169
145
193
443
849
1174
920
-12
-481
-36
152
-92
-58
82
50
41
87
92
111
128
106
104
111
99
84
62
16
-26
-75
-116
-145
-188
-227
-242
-249
-261
-295
-326
-326
-326
-343
-355
-377
-428
-467
-464
-457
-452
-440
-452
-447
-409
-397
-392
-368
-363
-368
-360
-348
-314
-290
-297
-295
-273
-259
-256
-256
-263
-259
-251
-266
-266
-244
-244
-244
-232
-230
-242
-232
-171
-130
-174
-205
-188
-191
-200
-188
-184
-186
-179
-176
-162
-104
-72
-94
-77
-19
48
230
610
1038
1140
501
-305
-244
133
9
-113
12
33
-9
4
21
24
46
62
75
108
135
130
152
215
268
312
363
406
440
472
493
498
491
474
443
399
338
263
167
24
-118
-188
-251
-351
-404
-409
-430
-450
-450
-452
-464
-440
-414
-418
-418
-397
-392
-382
-363
-363
-368
-360
-348
-338
-331
-329
-334
-329
-324
-348
-346
-302
-288
-300
-290
-268
-259
-256
-254
-249
-246
-244
-246
-246
-230
-225
-239
-239
-222
-213
-220
-237
-213
-196
-225
-87
302
685
852
440
-462
-690
-196
-169
-416
-285
-181
-283
-292
-232
-230
-239
-225
-220
-227
-230
-213
-203
-210
-188
-179
-208
-215
-171
-121
-128
-147
-140
-121
-77
12
104
164
227
290
322
338
353
348
334
322
300
276
234
174
130
84
9
-53
-94
-140
-179
-208
-242
-246
-232
-234
-254
-271
-276
-283
-307
-312
-314
-353
-387
-392
-394
-397
-375
-353
-355
-348
-336
-351
-353
-348
-351
-334
-329
-348
-358
-351
-343
-351
-351
-336
-336
-329
-280
-162
116
539
823
467
-440
-769
-346
-249
-438
-351
-259
-312
-300
-239
-234
-242
-208
-193
-225
-217
-174
-167
-191
-198
-176
-167
-162
-133
-116
-125
-118
-87
-70
-60
-41
-53
-89
-84
-72
-113
-169
-176
-164
-196
-227
-193
-125
-48
53
152
225
276
300
309
312
302
307
324
290
222
200
215
193
125
65
2
-58
-72
-77
-125
-164
-147
-145
-186
-203
-193
-193
-188
-176
-179
-184
-176
-186
-200
-200
-200
-203
-193
-179
-169
-167
-167
-164
-169
-167
-152
-154
-92
162
559
886
711
-128
-660
-338
-150
-343
-319
-203
-234
-249
-205
-176
-162
-142
-135
-152
-167
-159
-145
-145
-157
-162
-150
-133
-128
-135
-113
-72
-67
-77
-58
-43
-43
-48
-50
-58
-84
-128
-157
-179
-208
-217
-215
-225
-217
-191
-181
-186
-176
-171
-188
-186
-169
-167
-164
-162
-159
-152
-157
-164
-157
-162
-179
-171
-157
-164
-164
-159
-179
-196
-198
-196
-200
-215
-225
-213
-208
-200
-181
-169
-179
-188
-179
-184
-217
-230
-227
-239
-246
-244
-259
-278
-273
-259
-271
-292
-280
-162
128
530
794
418
-481
-774
-358
-295
-484
-397
-331
-401
-380
-324
-336
-331
-314
-319
-312
-295
-295
-288
-278
-276
-268
-263
-254
-244
-244
-246
-237
-225
-217
-205
-200
-205
-210
-215
-227
-251
-305
-353
-375
-382
-387
-387
-387
-389
-377
-355
-358
-368
-351
-336
-348
-348
-334
-331
-317
-290
-280
-290
-283
-280
-295
-295
-285
-285
-278
-276
-283
-280
-276
-280
-280
-278
-276
-278
-278
-263
-244
-234
-222
-210
-217
-230
-222
-222
-239
-237
-234
-234
-225
-234
-256
-246
-232
-239
-249
-256
-249
-145
150
564
820
460
-433
-760
-360
-276
-469
-397
-309
-363
-353
-297
-300
-309
-290
-285
-290
-285
-285
-278
-249
-244
-261
-251
-237
-237
-220
-198
-193
-181
-169
-171
-169
-159
-171
-196
-210
-239
-278
-302
-312
-322
-326
-324
-319
-312
-297
-288
-285
-280
-266
-259
-266
-271
-259
-244
-237
-232
-234
-230
-222
-217
-217
-213
-213
-217
-215
-215
-227
-232
-222
-215
-215
-205
-188
-188
-198
-198
-210
-230
-239
-227
-213
-217
-215
-188
-179
-184
-176
-167
-157
-159
-174
-179
-176
-176
-181
-193
-203
-198
-213
-227
-222
-230
-205
-2
380
752
767
55
-694
-547
-215
-363
-426
-302
-307
-343
-302
-283
-288
-268
-254
-251
-244
-225
-225
-246
-239
-215
-215
-213
-193
-188
-186
-167
-157
-154
-140
-133
-140
-145
-145
-157
-181
-220
-261
-292
-329
-353
-348
-351
-365
-353
-348
-360
-351
-336
-334
-331
-324
-309
-292
-278
-278
-288
-288
-266
-251
-249
-242
-242
-254
-259
-259
-259
-273
-295
-297
-295
-302
-307
-307
-309
-307
-292
-290
-307
-307
-297
-297
-283
-261
-266
-276
-285
-295
-292
-290
-297
-309
-309
-302
-305
-297
-288
-300
-307
-290
-292
-295
-174
123
510
760
372
-532
-791
-372
-336
-525
-433
-358
-404
-382
-343
-348
-334
-309
-307
-295
-280
-278
-278
-273
-266
-251
-242
-234
-220
-205
-191
-174
-157
-147
-140
-140
-140
-140
-150
-164
-184
-227
-273
-297
-314
-324
-319
-317
-312
-297
-285
-278
-266
-251
-239
-234
-232
-217
-203
-210
-217
-203
-193
-198
-191
-184
-205
-220
-213
-213
-217
-210
-208
-210
-208
-208
-203
-203
-215
-213
-205
-213
-225
-220
-217
-217
-217
-225
-222
-193
-184
-193
-191
-181
-188
-205
-220
-234
-246
-234
-215
-215
-222
-217
-213
-215
-215
-213
-213
-217
-217
-111
188
583
801
392
-474
-702
-302
-268
-435
-346
-285
-338
-322
-276
-278
-273
-251
-249
-246
-244
-242
-225
-208
-213
-200
-171
-162
-159
-150
-138
-118
-106
-96
-79
-77
-84
-87
-87
-92
-111
-145
-184
-215
-225
-225
-234
-234
-230
-232
-239
-230
-213
-210
-205
-184
-174
-181
-179
-174
-174
-164
-154
-142
-128
-130
-140
-135
-123
-128
-145
-154
-147
-140
-147
-152
-145
-162
-176
-171
-181
-198
-196
-205
-217
-217
-227
-230
-222
-230
-230
-191
-169
-191
-208
-205
-208
-205
-198
-200
-205
-196
-191
-191
-186
-186
-186
-181
-188
-164
19
387
765
823
184
-627
-583
-193
-280
-377
-268
-268
-309
-261
-242
-261
-237
-215
-227
-222
-200
-200
-213
-196
-174
-181
-196
-186
-174
-171
-162
-157
-150
-147
-147
-140
-150
-179
-188
-184
-196
-232
-271
-292
-307
-314
-309
-300
-295
-302
-302
-283
-271
-271
-273
-271
-259
-237
-220
-217
-220
-217
-205
-205
-215
-213
-208
-213
-220
-225
-222
-215
-225
-232
-227
-217
-217
-222
-217
-215
-213
-210
-213
-210
-205
-208
-196
-181
-186
-193
-181
-174
-176
-186
-193
-193
-191
-191
-191
-198
-203
-203
-196
-184
-179
-179
-181
-191
-106
188
610
881
542
-338
-687
-292
-196
-394
-343
-261
-305
-300
-266
-266
-251
-230
-225
-213
-208
-203
-191
-198
-203
-181
-167
-179
-179
-147
-130
-138
-118
-82
-70
-82
-77
-67
-72
-75
-89
-123
-147
-164
-193
-220
-220
-208
-213
-222
-225
-230
-220
-191
-176
-193
-215
-210
-186
-167
-162
-169
-174
-157
-150
-169
-174
-167
-171
-169
-162
-167
-159
-135
-133
-184
-225
-208
-174
-169
-169
-152
-159
-169
-138
-133
-169
-145
-101
-113
-123
-104
-101
-128
-135
-113
-111
-123
-125
-118
-113
-111
-101
-99
-111
-133
-147
-145
-21
312
714
883
440
-406
-619
-213
-184
-355
-242
-147
-196
-208
-203
-220
-203
-164
-157
-159
-150
-152
-150
-140
-142
-123
-94
-96
-111
-94
-55
-53
-72
-55
-24
-29
-31
-21
-50
-77
-72
-113
-162
-167
-191
-217
-227
-239
-215
-222
-237
-208
-210
-220
-203
-186
-167
-167
-169
-150
-159
-162
-99
-82
-142
-171
-116
-87
-128
-135
-125
-159
-164
-116
-94
-99
-108
-130
-133
-121
-133
-140
-142
-150
-145
-140
-135
-123
-142
-118
118
537
852
682
-89
-660
-389
-125
-295
-300
-159
-179
-222
-186
-157
-157
-164
-169
-145
-123
-135
-138
-121
-113
-125
-140
-113
-41
-24
-67
-43
16
9
-14
2
12
-7
-31
-46
-43
-77
-150
-162
-142
-181
-208
-176
-176
-210
-176
-123
-150
-179
-145
-125
-130
-118
-101
-123
-138
-82
-36
-72
-89
-72
-96
-104
-75
-70
-72
-62
-79
-104
-96
-75
-72
-104
-121
-106
-111
-150
-152
-133
-162
-176
-138
-147
-174
-135
-118
-138
-135
-116
-89
-65
-43
-24
-7
9
7
-2
14
16
-16
-26
-21
-36
-38
-41
-65
-77
-87
-104
-108
-121
-99
130
547
874
757
-12
-656
-414
-116
-271
-309
-203
-215
-227
-176
-186
-215
-174
-150
-167
-157
-142
-142
-152
-140
-104
-89
-106
-99
-75
-62
-65
-60
-41
-33
-50
-67
-84
-92
-77
-72
-118
-157
-133
-133
-200
-217
-176
-184
-215
-213
-198
-176
-164
-171
-162
-152
-150
-121
-89
-99
-121
-101
-72
-92
-116
-92
-92
-116
-108
-101
-108
-116
-123
-116
-99
-113
-150
-152
-125
-133
-167
-164
-142
-125
-92
-84
-106
-111
-104
-123
-152
-147
-104
-96
-142
-147
-99
-108
-150
-123
-77
-104
-135
-4
331
755
1004
622
-307
-646
-208
-101
-322
-263
-157
-196
-193
-142
-145
-145
-123
-140
-147
-125
-130
-116
-99
-128
-142
-118
-89
-77
-82
-67
-38
-41
-50
-55
-9
50
-7
-43
24
-4
-113
-145
-150
-198
-222
-230
-205
-157
-167
-191
-171
-154
-142
-128
-147
-164
-123
-89
-108
-125
-116
-92
-77
-94
-101
-55
-36
-99
-130
-84
-62
-79
-82
-75
-82
-79
-53
-62
-104
-94
-46
-21
-26
-62
-145
-249
-319
-351
-365
-372
-358
-317
-259
-162
-29
70
159
256
242
-79
-450
-324
196
813
1396
1421
1058
1464
2418
2856
3069
3442
3658
3716
3822
3900
3880
3830
3767
3667
3561
3466
3341
3190
3077
2965
2791
2592
2418
2241
2067
1924
1803
1685
1590
1518
1435
1367
1319
1266
1205
1125
1053
990
927
881
835
801
796
769
731
723
726
719
706
699
704
706
706
697
692
704
704
682
670
682
682
670
653
634
619
598
571
561
564
554
539
522
503
481
503
542
525
496
489
479
467
450
435
438
440
433
421
428
445
433
433
464
450
430
617
1021
1423
1522
883
-33
-70
353
288
142
249
305
280
314
346
334
336
360
372
382
394
401
411
418
423
460
501
501
472
479
535
568
537
520
571
619
605
564
554
532
486
455
421
377
351
360
380
372
346
336
353
355
348
370
365
334
343
370
382
372
372
382
384
382
377
387
399
404
423
440
438
428
423
438
433
392
363
283
150
53
16
65
121
111
140
220
244
99
-208
-309
77
481
346
765
2854
5345
7192
8776
9945
10488
10686
10524
9691
8592
8166
8200
7873
7398
7120
6810
6423
6069
5636
5062
4491
3972
3442
2914
2471
2101
1721
1380
1145
956
765
617
525
443
360
309
271
217
157
123
99
33
-21
-41
-72
-125
-162
-167
-171
-188
-200
-186
-179
-198
-210
-200
-205
-232
-271
-300
-290
-290
-309
-319
-336
-343
-346
-355
-355
-358
-334
-295
-307
-341
-326
-297
-302
-302
-276
-251
-234
-213
-186
-164
-150
-133
-101
-108
-142
-138
-125
-133
-145
-138
-111
-121
-130
-82
-41
-48
-12
196
588
1009
1065
363
-447
-341
79
-9
-121
9
60
19
36
72
82
84
89
101
123
152
159
150
154
171
179
186
188
186
205
225
220
242
280
295
278
261
263
259
225
184
162
145
108
75
89
123
123
113
125
138
154
167
157
154
142
130
152
169
147
147
167
174
169
140
104
118
142
111
75
62
46
9
-43
-96
-118
-113
-130
-154
-164
-184
-198
-196
-210
-244
-276
-290
-278
-290
-353
-423
-467
-510
-585
-677
-760
-784
-641
-326
-41
-200
-1077
-1789
-1547
-1288
-1530
-1605
-1486
-1520
-1571
-1537
-1522
-1530
-1518
-1505
-1496
-1479
-1450
-1423
-1409
-1392
-1363
-1341
-1317
-1271
-1237
-1225
-1208
-1191
-1171
-1140
-1113
-1101
-1089
-1084
-1087
-1087
-1089
-1108
-1123
-1128
-1123
-1106
-1089
-1077
-1060
-1041
-1021
-1004
-1002
-1002
-997
-982
-968
-956
-934
-912
-903
-888
-864
-849
-835
-825
-818
-801
-796
-811
-820
-813
-815
-818
-806
-794
-772
-740
-733
-743
-738
-723
-719
-721
-721
-706
-687
-680
-673
-673
-673
-663
-636
-622
-634
-653
-568
-297
87
394
164
-721
-1191
-808
-636
-840
-796
-699
-752
-748
-699
-709
-709
-692
-704
-714
-702
-694
-699
-714
-723
-704
-685
-685
-680
-677
-680
-660
-651
-653
-629
-614
-627
-629
-639
-665
-697
-740
-794
-835
-864
-866
-869
-886
-888
-881
-874
-866
-888
-912
-907
-905
-907
-910
-912
-905
-895
-886
-876
-864
-847
-825
-813
-813
-806
-806
-806
-796
-789
-794
-808
-813
-803
-798
-798
-806
-808
-811
-828
-847
-847
-835
-835
-840
-837
-835
-837
-842
-837
-835
-849
-857
-779
-520
-121
203
16
-849
-1396
-1026
-789
-1016
-1026
-912
-966
-1002
-963
-970
-985
-958
-944
-951
-951
-949
-941
-932
-924
-915
-907
-903
-886
-866
-847
-808
-774
-757
-731
-714
-745
-767
-736
-728
-767
-798
-820
-857
-883
-888
-883
-881
-876
-866
-852
-837
-825
-815
-808
-794
-772
-755
-743
-723
-699
-682
-675
-660
-639
-627
-624
-614
-605
-600
-595
-588
-583
-573
-568
-571
-566
-568
-581
-573
-539
-518
-530
-539
-532
-537
-544
-525
-513
-527
-530
-513
-498
-501
-506
-506
-506
-508
-518
-515
-387
-62
351
588
142
-769
-966
-542
-539
-714
-600
-532
-578
-552
-513
-522
-508
-479
-472
-467
-462
-455
-435
-416
-409
-399
-384
-368
-351
-338
-331
-324
-319
-322
-329
-336
-343
-355
-368
-380
-397
-418
-438
-457
-469
-472
-460
-440
-433
-426
-411
-404
-401
-394
-387
-387
-394
-389
-384
-392
-389
-380
-380
-387
-380
-363
-360
-370
-380
-389
-389
-384
-384
-380
-365
-341
-324
-324
-322
-312
-302
-288
-266
-261
-280
-305
-331
-360
-377
-375
-360
-353
-346
-329
-314
-314
-317
-314
-307
-317
-336
-266
0
392
699
535
-302
-890
-583
-353
-552
-539
-414
-452
-474
-416
-401
-404
-380
-360
-365
-370
-372
-375
-360
-338
-341
-348
-334
-314
-305
-305
-290
-263
-249
-244
-237
-242
-249
-251
-268
-305
-343
-372
-397
-418
-426
-421
-421
-423
-414
-401
-397
-384
-377
-372
-368
-377
-380
-375
-380
-387
-377
-372
-372
-368
-365
-360
-353
-353
-360
-363
-353
-353
-351
-355
-375
-384
-382
-377
-363
-348
-336
-312
-307
-319
-322
-322
-334
-348
-358
-358
-360
-370
-370
-368
-372
-375
-370
-368
-377
-389
-319
-53
343
656
474
-387
-966
-619
-368
-566
-566
-447
-476
-479
-426
-421
-421
-394
-389
-389
-372
-358
-353
-348
-346
-338
-331
-329
-317
-322
-336
-324
-300
-288
-288
-288
-290
-295
-317
-351
-377
-394
-418
-447
-457
-464
-474
-472
-460
-447
-433
-423
-418
-406
-389
-375
-355
-341
-338
-319
-292
-288
-290
-278
-271
-273
-280
-288
-278
-266
-271
-273
-263
-261
-263
-261
-256
-256
-251
-242
-244
-259
-266
-251
-230
-217
-210
-210
-230
-246
-249
-251
-263
-276
-280
-273
-261
-259
-266
-273
-273
-268
-268
-273
-285
-305
-225
75
498
784
491
-406
-811
-401
-271
-474
-411
-302
-338
-326
-271
-273
-280
-261
-259
-271
-278
-278
-285
-300
-302
-290
-290
-300
-295
-283
-273
-246
-220
-210
-210
-205
-210
-239
-261
-278
-307
-346
-392
-421
-426
-426
-438
-445
-438
-428
-428
-416
-409
-404
-387
-365
-360
-360
-351
-338
-341
-336
-331
-331
-348
-372
-368
-351
-358
-372
-375
-370
-375
-380
-382
-380
-382
-392
-406
-414
-435
-467
-472
-464
-464
-450
-430
-421
-421
-433
-445
-435
-433
-435
-423
-406
-404
-399
-392
-392
-382
-372
-372
-372
-384
-389
-276
43
452
675
295
-588
-886
-445
-348
-552
-491
-406
-447
-433
-389
-397
-399
-377
-365
-370
-368
-360
-353
-348
-353
-348
-338
-329
-312
-292
-280
-273
-263
-254
-242
-239
-249
-263
-278
-285
-300
-329
-363
-387
-397
-399
-394
-387
-377
-368
-360
-351
-348
-341
-329
-322
-322
-322
-317
-302
-297
-300
-300
-302
-300
-288
-288
-292
-295
-300
-300
-297
-300
-300
-302
-305
-300
-295
-300
-305
-302
-307
-312
-305
-297
-297
-297
-280
-259
-246
-244
-239
-246
-244
-242
-254
-254
-242
-242
-244
-239
-234
-230
-227
-230
-230
-244
-251
-130
181
561
772
377
-486
-721
-309
-273
-457
-370
-302
-351
-336
-307
-314
-302
-280
-271
-268
-259
-244
-234
-239
-246
-246
-234
-208
-184
-171
-171
-174
-159
-147
-157
-162
-164
-179
-191
-193
-213
-251
-278
-288
-292
-288
-283
-285
-283
-273
-256
-237
-222
-213
-205
-208
-203
-179
-159
-171
-184
-174
-171
-171
-157
-167
-181
-162
-157
-179
-181
-171
-171
-181
-198
-215
-217
-225
-239
-249
-244
-239
-249
-268
-261
-244
-254
-249
-222
-220
-242
-246
-251
-263
-283
-288
-280
-280
-290
-292
-292
-295
-297
-288
-278
-280
-283
-174
135
544
779
382
-552
-869
-426
-348
-568
-503
-423
-476
-450
-389
-397
-406
-382
-368
-372
-370
-358
-348
-338
-326
-312
-302
-300
-290
-271
-246
-227
-213
-191
-191
-210
-203
-188
-222
-254
-261
-297
-346
-358
-358
-370
-375
-363
-353
-348
-338
-331
-317
-300
-297
-290
-276
-271
-268
-263
-261
-256
-242
-234
-232
-237
-251
-261
-271
-300
-312
-302
-302
-297
-288
-292
-297
-300
-305
-295
-276
-268
-268
-273
-276
-268
-268
-266
-246
-225
-205
-193
-188
-198
-213
-208
-208
-230
-242
-244
-237
-225
-222
-222
-222
-230
-244
-251
-239
-106
220
622
808
305
-561
-665
-266
-319
-472
-346
-297
-358
-341
-307
-302
-288
-261
-246
-239
-230
-215
-205
-208
-205
-200
-217
-234
-208
-171
-167
-159
-133
-113
-101
-92
-89
-104
-123
-140
-164
-196
-222
-259
-288
-283
-271
-263
-263
-273
-266
-254
-259
-246
-222
-232
-237
-213
-196
-198
-193
-188
-184
-171
-167
-174
-181
-184
-184
-188
-193
-198
-198
-193
-196
-193
-179
-184
-200
-198
-181
-191
-203
-198
-198
-208
-210
-198
-184
-169
-154
-152
-159
-171
-176
-179
-186
-186
-174
-176
-181
-176
-171
-169
-164
-162
-169
-184
-184
-67
239
612
801
418
-397
-636
-242
-193
-380
-309
-234
-278
-266
-227
-230
-227
-205
-193
-188
-181
-176
-176
-162
-152
-157
-154
-133
-118
-116
-106
-87
-70
-62
-53
-41
-53
-72
-79
-87
-116
-154
-191
-220
-239
-249
-249
-244
-249
-256
-256
-256
-261
-263
-254
-244
-242
-239
-234
-222
-217
-227
-220
-213
-217
-208
-205
-227
-246
-254
-244
-242
-249
-254
-268
-280
-276
-266
-271
-280
-278
-280
-290
-290
-290
-302
-307
-305
-305
-307
-312
-309
-309
-324
-338
-334
-351
-382
-392
-394
-416
-440
-455
-479
-501
-508
-525
-554
-576
-508
-225
186
440
72
-922
-1382
-973
-837
-1060
-1002
-881
-915
-903
-837
-820
-808
-765
-752
-777
-772
-740
-733
-743
-723
-697
-687
-670
-651
-641
-627
-600
-578
-559
-547
-571
-602
-617
-644
-704
-808
-968
-1179
-1438
-1716
-1939
-2067
-2137
-2193
-2237
-2273
-2321
-2370
-2408
-2450
-2471
-2469
-2452
-2425
-2392
-2348
-2304
-2263
-2220
-2176
-2130
-2074
-2016
-1958
-1900
-1852
-1832
-1827
-1810
-1794
-1798
-1806
-1798
-1769
-1740
-1711
-1672
-1639
-1624
-1619
-1602
-1554
-1486
-1426
-1350
-1258
-1169
-1091
-1031
-992
-946
-893
-859
-832
-784
-740
-723
-697
-658
-636
-629
-622
-530
-242
198
583
418
-491
-1070
-694
-469
-699
-682
-581
-702
-801
-820
-915
-1067
-1232
-1447
-1716
-2011
-2312
-2563
-2716
-2762
-2730
-2653
-2549
-2408
-2237
-2065
-1883
-1680
-1520
-1394
-1261
-1154
-1079
-999
-920
-869
-832
-806
-789
-760
-723
-690
-653
-624
-598
-556
-520
-493
-457
-418
-392
-363
-331
-312
-290
-266
-251
-237
-215
-203
-200
-205
-208
-198
-188
-184
-179
-174
-174
-191
-200
-186
-169
-181
-198
-196
-193
-198
-203
-203
-203
-205
-196
-179
-169
-184
-196
-200
-210
-217
-220
-234
-251
-256
-244
-234
-239
-242
-239
-230
-225
-237
-176
92
522
866
711
-123
-711
-387
-125
-309
-307
-188
-205
-191
-125
-135
-159
-133
-99
-99
-111
-104
-94
-92
-89
-94
-96
-92
-92
-89
-84
-75
-58
-43
-36
-24
-12
-31
-60
-70
-79
-108
-154
-193
-213
-220
-232
-234
-230
-227
-227
-220
-210
-205
-210
-210
-198
-186
-171
-159
-152
-154
-154
-147
-147
-152
-150
-157
-162
-157
-154
-147
-140
-145
-142
-130
-128
-128
-133
-147
-142
-128
-125
-121
-106
-99
-111
-123
-113
-108
-118
-125
-118
-111
-106
-104
-111
-118
-118
-108
-104
-116
-108
36
368
743
888
397
-426
-513
-92
-108
-266
-167
-128
-186
-162
-121
-130
-135
-125
-111
-94
-84
-75
-65
-60
-50
-41
-31
-21
-19
-14
9
36
50
60
70
75
70
60
48
26
-9
-48
-82
-108
-121
-123
-125
-133
-133
-123
-116
-118
-121
-111
-92
-82
-79
-70
-58
-58
-60
-53
-43
-48
-50
-29
-7
-14
-19
-7
-4
-7
-12
-21
-24
-16
-19
-26
-33
-41
-53
-65
-79
-79
-65
-58
-50
-53
-62
-62
-62
-75
-82
-89
-96
-87
-75
-70
-72
-79
-77
-72
-84
-104
-48
191
578
920
806
-12
-627
-331
-87
-300
-317
-203
-246
-276
-225
-213
-232
-215
-217
-249
-237
-203
-200
-205
-200
-179
-154
-140
-138
-142
-140
-125
-111
-96
-82
-72
-70
-72
-87
-111
-142
-196
-254
-285
-295
-297
-312
-334
-341
-334
-324
-307
-290
-285
-273
-256
-251
-242
-234
-237
-232
-208
-179
-162
-174
-188
-184
-162
-142
-145
-167
-181
-171
-157
-162
-181
-186
-188
-196
-184
-159
-147
-147
-150
-142
-123
-123
-130
-138
-145
-142
-138
-128
-111
-111
-135
-135
-116
-104
-106
-121
-82
142
525
869
815
55
-634
-394
-89
-280
-317
-181
-203
-234
-179
-164
-174
-152
-128
-118
-101
-87
-89
-92
-77
-58
-48
-38
-31
-14
9
31
48
58
65
67
60
48
36
14
-38
-94
-133
-164
-188
-191
-186
-184
-179
-169
-169
-174
-171
-164
-162
-162
-154
-145
-145
-147
-145
-135
-128
-123
-121
-125
-125
-116
-106
-104
-104
-106
-108
-101
-101
-116
-121
-113
-116
-118
-121
-123
-123
-123
-118
-101
-96
-113
-116
-121
-138
-142
-140
-150
-150
-135
-125
-128
-130
-121
-113
-108
-111
-128
-60
215
610
895
706
-111
-634
-302
-96
-300
-285
-174
-215
-225
-171
-164
-169
-150
-145
-150
-145
-145
-147
-140
-135
-133
-125
-113
-106
-99
-72
-29
-7
2
31
50
46
36
29
12
-24
-72
-121
-145
-167
-181
-181
-188
-196
-176
-164
-169
-162
-140
-138
-145
-121
-92
-94
-99
-79
-58
-62
-70
-70
-77
-79
-82
-89
-77
-65
-79
-84
-89
-108
-118
-121
-123
-113
-118
-128
-116
-99
-96
-118
-142
-138
-135
-150
-152
-154
-169
-174
-169
-167
-162
-159
-164
-164
-169
-167
-62
239
622
791
411
-370
-636
-268
-186
-375
-317
-230
-273
-268
-232
-237
-242
-237
-234
-222
-203
-198
-217
-227
-200
-188
-205
-191
-174
-176
-167
-145
-123
-99
-96
-108
-96
-62
-50
-111
-196
-234
-280
-331
-319
-324
-411
-426
-372
-401
-438
-411
-411
-455
-462
-445
-462
-476
-455
-433
-416
-382
-355
-360
-372
-375
-382
-392
-380
-355
-329
-164
239
595
501
-169
-823
-692
-312
-404
-503
-394
-399
-435
-392
-377
-380
-372
-382
-365
-268
-239
-326
-300
-237
-309
-312
-215
-217
-242
-174
-118
-133
-116
-48
-33
-87
-96
-84
-96
-118
-208
-292
-285
-297
-329
-280
-259
-317
-292
-210
-237
-261
-188
-171
-205
-142
-70
-140
-208
-140
-94
-118
-104
-84
-72
-77
-133
-108
-55
-128
-174
-121
-106
-125
-99
-67
-94
-125
-99
-106
-181
-171
-96
-87
-125
-138
-101
-89
-125
-128
-99
-113
-128
-94
-79
-96
-111
-121
-118
-108
-94
-89
-75
-50
-41
-31
-38
-70
-67
-75
-113
-130
-121
-106
-113
-121
-41
92
116
21
-38
-130
-384
-537
-353
-4
246
230
-2
-169
-154
-128
-154
-154
-147
-150
-147
-135
-118
-113
-113
-106
-111
-104
-79
-70
-70
-58
-36
-19
-16
0
21
33
58
75
62
58
60
21
-24
-58
-116
-164
-179
-203
-230
-234
-222
-205
-198
-186
-157
-145
-147
-135
-130
-147
-164
-169
-184
-188
-167
-150
-142
-145
-167
-174
-169
-179
-176
-176
-193
-205
-210
-213
-215
-220
-230
-208
-9
382
752
757
72
-673
-532
-179
-329
-433
-317
-300
-317
-266
-254
-276
-256
-232
-227
-217
-203
-208
-215
-213
-196
-176
-181
-188
-164
-135
-125
-113
-96
-84
-79
-87
-92
-101
-123
-164
-208
-239
-251
-268
-288
-285
-278
-285
-290
-283
-280
-278
-271
-259
-244
-237
-232
-220
-210
-213
-215
-205
-200
-193
-176
-169
-181
-186
-171
-169
-191
-200
-193
-193
-196
-198
-205
-200
-191
-193
-198
-203
-215
-210
-203
-200
-188
-188
-193
-184
-181
-188
-184
-174
-179
-184
-176
-176
-181
-174
-159
-142
-130
-125
-121
-111
-113
-133
-133
-113
-116
-138
-138
-118
-123
-130
-113
-108
-128
-142
-145
-70
169
522
837
709
-104
-656
-343
-145
-353
-355
-246
-266
-268
-234
-230
-225
-203
-186
-181
-169
-164
-176
-169
-142
-138
-150
-147
-125
-111
-108
-96
-77
-65
-60
-55
-58
-62
-77
-106
-123
-135
-176
-210
-213
-217
-242
-246
-230
-227
-220
-198
-186
-191
-188
-169
-167
-176
-169
-152
-152
-154
-157
-167
-162
-147
-142
-150
-157
-169
-176
-169
-164
-167
-174
-174
-167
-167
-176
-179
-179
-188
-186
-169
-152
-140
-145
-162
-159
-150
-157
-171
-169
-157
-147
-135
-118
-113
-121
-125
-125
-121
-125
-150
-125
75
426
769
815
138
-646
-520
-174
-331
-411
-278
-280
-319
-261
-232
-239
-220
-205
-198
-176
-164
-169
-167
-154
-145
-130
-116
-101
-84
-75
-67
-38
-14
-9
-4
-2
-12
-29
-48
-75
-121
-169
-198
-213
-227
-227
-215
-215
-220
-205
-186
-181
-184
-181
-169
-157
-157
-154
-145
-133
-133
-138
-125
-116
-118
-111
-96
-94
-101
-108
-113
-121
-130
-138
-147
-169
-179
-181
-188
-184
-176
-191
-203
-184
-162
-157
-138
-118
-118
-113
-116
-138
-138
-116
-118
-140
-147
-138
-138
-147
-150
-152
-157
-152
-152
-154
-58
222
583
825
544
-273
-617
-251
-157
-338
-290
-220
-244
-220
-188
-198
-200
-186
-171
-164
-162
-159
-150
-142
-135
-123
-116
-113
-101
-84
-65
-46
-26
-9
4
7
-9
-26
-38
-62
-111
-171
-215
-234
-249
-254
-246
-232
-225
-215
-208
-200
-191
-176
-164
-164
-152
-125
-116
-121
-116
-108
-106
-101
-96
-94
-99
-108
-113
-118
-123
-123
-125
-125
-128
-135
-130
-130
-130
-133
-138
-121
-104
-118
-128
-123
-106
-89
-82
-82
-84
-87
-89
-111
-128
-121
-128
-152
-145
-135
-154
-157
-140
-154
-184
-193
-159
9
346
706
828
297
-520
-568
-181
-256
-406
-292
-242
-290
-276
-256
-266
-259
-237
-230
-237
-230
-215
-210
-196
-179
-174
-171
-150
-118
-111
-101
-72
-60
-60
-46
-33
-33
-41
-67
-94
-118
-157
-208
-244
-268
-285
-292
-297
-322
-341
-336
-314
-292
-276
-263
-251
-239
-222
-196
-188
-196
-210
-213
-208
-205
-193
-179
-167
-164
-164
-152
-147
-157
-157
-145
-150
-159
-157
-162
-171
-174
-169
-157
-147
-142
-130
-113
-89
-89
-125
-147
-130
-113
-101
-99
-111
-118
-111
-111
-123
-121
-116
-121
-121
-116
-4
324
733
944
552
-309
-588
-217
-181
-360
-273
-198
-251
-251
-203
-176
-186
-196
-193
-174
-147
-164
-174
-138
-116
-128
-128
-108
-99
-92
-58
-26
0
21
14
0
2
14
7
-29
-77
-123
-162
-200
-230
-232
-232
-230
-210
-198
-196
-196
-184
-157
-167
-196
-171
-152
-174
-169
-135
-135
-154
-145
-128
-138
-142
-130
-128
-128
-125
-147
-154
-133
-130
-147
-176
-198
-193
-191
-198
-198
-186
-186
-210
-220
-181
-157
-188
-208
-193
-188
-193
-188
-188
-188
-181
-174
-164
-157
-154
-159
-164
-152
-55
242
668
910
522
-341
-617
-217
-147
-341
-271
-188
-227
-198
-138
-142
-157
-145
-123
-108
-104
-99
-92
-82
-67
-50
-46
-46
-41
-24
-2
2
21
48
43
36
41
31
16
-2
-41
-82
-121
-164
-176
-174
-186
-167
-138
-159
-193
-174
-150
-162
-167
-135
-116
-118
-121
-111
-111
-116
-118
-116
-116
-128
-147
-150
-150
-171
-174
-157
-167
-181
-176
-184
-196
-188
-188
-200
-205
-213
-210
-191
-193
-200
-176
-157
-157
-159
-162
-169
-186
-193
-184
-179
-181
-198
-205
-181
-167
-186
-213
-217
-217
-181
26
392
726
745
118
-610
-520
-191
-322
-411
-285
-276
-324
-290
-259
-263
-261
-254
-244
-234
-232
-222
-215
-210
-200
-191
-174
-152
-147
-138
-111
-79
-70
-72
-62
-50
-60
-72
-79
-89
-113
-154
-193
-208
-205
-213
-227
-230
-225
-230
-246
-256
-230
-210
-222
-222
-205
-203
-215
-205
-179
-176
-179
-164
-159
-164
-162
-152
-147
-157
-164
-159
-162
-164
-167
-179
-188
-200
-208
-200
-203
-196
-169
-145
-147
-164
-169
-162
-164
-174
-179
-181
-188
-191
-181
-171
-176
-181
-181
-174
-179
-179
-55
254
641
883
527
-363
-673
-263
-203
-399
-309
-230
-292
-285
-230
-230
-237
-217
-203
-193
-186
-184
-181
-167
-157
-150
-135
-116
-108
-104
-84
-60
-46
-29
-19
-26
-29
-36
-58
-79
-113
-169
-217
-249
-271
-273
-271
-276
-276
-261
-249
-249
-242
-232
-237
-249
-242
-217
-205
-208
-200
-186
-171
-169
-174
-176
-176
-176
-184
-184
-176
-174
-174
-167
-157
-152
-159
-169
-174
-169
-162
-157
-159
-164
-169
-164
-164
-169
-169
-176
-179
-171
-174
-181
-179
-184
-193
-191
-193
-174
-2
346
716
840
276
-552
-571
-196
-276
-397
-290
-268
-309
-271
-230
-230
-220
-198
-188
-181
-181
-193
-191
-174
-179
-179
-147
-130
-125
-106
-92
-87
-77
-60
-60
-67
-75
-92
-116
-138
-179
-234
-268
-285
-300
-302
-295
-283
-266
-254
-230
-203
-193
-198
-200
-181
-159
-152
-145
-135
-135
-138
-145
-140
-113
-106
-121
-121
-104
-101
-128
-140
-130
-133
-142
-140
-133
-118
-108
-118
-128
-128
-140
-162
-164
-154
-167
-176
-179
-188
-193
-188
-196
-203
-213
-232
-200
-12
343
728
840
244
-576
-566
-179
-268
-392
-273
-251
-297
-261
-227
-237
-232
-225
-234
-239
-232
-220
-203
-174
-162
-191
-220
-217
-191
-171
-159
-147
-130
-118
-108
-111
-125
-150
-171
-198
-227
-261
-297
-329
-331
-322
-319
-312
-302
-297
-290
-278
-261
-254
-266
-278
-266
-239
-232
-230
-220
-208
-200
-188
-181
-179
-176
-174
-171
-169
-167
-169
-171
-179
-181
-184
-181
-167
-147
-147
-164
-171
-159
-152
-157
-154
-145
-142
-130
-116
-128
-138
-133
-128
-130
-145
-184
-147
96
496
849
803
36
-651
-416
-121
-307
-348
-222
-242
-268
-217
-203
-208
-188
-179
-176
-171
-162
-150
-147
-159
-159
-140
-121
-121
-118
-99
-77
-67
-55
-38
-41
-50
-53
-62
-84
-116
-159
-210
-246
-259
-256
-256
-261
-259
-249
-244
-234
-227
-215
-196
-176
-157
-147
-159
-171
-167
-164
-171
-184
-198
-205
-200
-193
-196
-196
-196
-205
-208
-205
-210
-208
-200
-191
-169
-133
-121
-133
-135
-133
-135
-130
-130
-138
-145
-152
-162
-152
-140
-154
-162
-152
-154
-159
-82
176
566
883
731
-104
-692
-382
-150
-355
-355
-237
-273
-285
-237
-239
-244
-225
-232
-239
-210
-184
-186
-179
-154
-133
-118
-101
-82
-62
-55
-46
-26
-16
-21
-31
-43
-46
-46
-60
-96
-138
-167
-181
-191
-205
-203
-193
-205
-208
-188
-179
-184
-167
-145
-145
-150
-150
-147
-135
-125
-130
-130
-130
-133
-133
-125
-123
-128
-135
-140
-142
-140
-135
-133
-121
-99
-94
-111
-116
-113
-125
-145
-150
-133
-106
-99
-96
-82
-79
-84
-82
-75
-82
-113
-99
99
484
866
888
162
-651
-535
-174
-331
-426
-290
-285
-319
-259
-227
-239
-234
-225
-217
-203
-200
-200
-191
-184
-181
-181
-176
-167
-157
-142
-116
-89
-82
-79
-79
-82
-84
-94
-116
-150
-184
-215
-239
-244
-246
-254
-256
-239
-215
-213
-208
-191
-186
-188
-176
-159
-154
-159
-157
-140
-133
-133
-128
-121
-106
-96
-108
-116
-108
-111
-123
-133
-138
-135
-133
-145
-150
-125
-101
-96
-96
-104
-118
-108
-101
-108
-108
-111
-116
-111
-108
-121
-125
-128
-138
-152
-159
-101
128
503
840
789
36
-648
-423
-130
-322
-382
-244
-200
-191
-181
-203
-205
-186
-184
-174
-154
-152
-142
-116
-104
-96
-79
-65
-58
-60
-67
-60
-43
-41
-33
-24
-36
-55
-67
-94
-133
-176
-213
-234
-242
-246
-249
-244
-230
-225
-237
-242
-225
-220
-232
-225
-208
-215
-217
-213
-213
-196
-169
-159
-147
-135
-125
-128
-140
-130
-118
-140
-167
-157
-140
-145
-150
-138
-123
-133
-157
-157
-152
-167
-186
-181
-171
-179
-181
-174
-174
-174
-164
-157
-167
-171
-123
104
503
854
750
-50
-702
-426
-125
-307
-338
-217
-249
-283
-230
-217
-232
-210
-193
-188
-179
-174
-176
-167
-150
-142
-145
-140
-121
-96
-82
-75
-62
-55
-50
-46
-41
-43
-67
-96
-121
-145
-181
-205
-210
-217
-222
-213
-205
-210
-205
-198
-203
-198
-179
-164
-162
-154
-150
-145
-130
-106
-99
-99
-92
-92
-101
-111
-121
-133
-147
-150
-142
-145
-154
-152
-140
-123
-108
-104
-113
-125
-123
-123
-128
-125
-125
-121
-116
-118
-118
-118
-128
-147
-164
-181
-186
-77
234
653
917
571
-329
-668
-256
-167
-368
-292
-200
-249
-244
-208
-215
-213
-191
-191
-191
-176
-169
-169
-159
-150
-152
-152
-138
-125
-108
-94
-96
-87
-67
-62
-60
-58
-70
-92
-108
-140
-179
-210
-232
-244
-244
-234
-234
-237
-225
-213
-200
-193
-196
-184
-162
-147
-128
-123
-125
-108
-94
-106
-125
-123
-121
-135
-140
-133
-130
-145
-142
-133
-140
-142
-125
-106
-87
-65
-67
-84
-84
-89
-111
-111
-106
-113
-106
-108
-125
-123
-101
-94
-108
-113
-113
-72
147
556
917
844
55
-651
-416
-84
-261
-329
-215
-220
-242
-205
-200
-213
-196
-171
-167
-179
-179
-157
-142
-140
-140
-140
-133
-113
-87
-70
-67
-53
-33
-38
-36
-24
-36
-58
-77
-96
-128
-176
-213
-215
-203
-205
-210
-208
-200
-193
-186
-181
-169
-157
-150
-142
-138
-125
-111
-118
-135
-128
-116
-121
-125
-116
-108
-118
-133
-138
-145
-154
-152
-140
-133
-123
-106
-96
-104
-121
-133
-135
-145
-152
-147
-150
-154
-147
-140
-138
-138
-130
-125
-142
-147
-29
271
673
915
503
-409
-658
-227
-184
-368
-271
-196
-261
-263
-225
-225
-222
-200
-184
-186
-186
-179
-167
-152
-162
-186
-184
-157
-145
-140
-118
-94
-77
-67
-53
-43
-50
-70
-89
-113
-140
-174
-208
-230
-242
-246
-242
-230
-222
-222
-213
-200
-196
-186
-174
-171
-171
-157
-142
-133
-138
-154
-154
-135
-125
-118
-113
-123
-128
-130
-154
-174
-174
-167
-152
-133
-118
-111
-113
-128
-150
-154
-152
-157
-157
-157
-154
-145
-133
-118
-108
-99
-79
-77
-99
-55
169
544
898
876
157
-552
-384
-89
-263
-336
-217
-220
-254
-220
-203
-213
-205
-198
-208
-208
-200
-205
-205
-188
-171
-154
-145
-135
-121
-104
-92
-92
-84
-70
-62
-65
-70
-70
-79
-113
-152
-193
-222
-234
-239
-239
-227
-225
-230
-220
-200
-186
-164
-130
-113
-111
-118
-123
-123
-128
-125
-121
-121
-128
-147
-152
-140
-142
-159
-154
-154
-162
-157
-140
-130
-116
-94
-87
-99
-104
-101
-113
-128
-130
-128
-128
-128
-128
-125
-121
-113
-106
-106
-125
-138
-16
305
682
835
382
-426
-588
-210
-213
-387
-314
-266
-295
-266
-237
-244
-232
-222
-222
-203
-184
-186
-193
-174
-162
-162
-157
-157
-157
-133
-104
-82
-67
-58
-48
-50
-60
-67
-84
-133
-171
-188
-210
-232
-234
-237
-237
-217
-196
-186
-181
-174
-164
-154
-147
-147
-145
-140
-128
-113
-104
-104
-96
-94
-96
-94
-96
-104
-113
-133
-152
-157
-154
-154
-157
-159
-133
-101
-92
-111
-135
-147
-150
-150
-145
-135
-140
-157
-154
-154
-167
-164
-164
-174
-181
-184
-62
239
547
590
92
-576
-583
-259
-305
-384
-263
-234
-263
-205
-169
-181
-162
-142
-138
-140
-162
-169
-157
-130
-94
-72
-87
-116
-111
-96
-104
-96
-87
-99
-104
-101
-116
-145
-181
-213
-239
-268
-292
-319
-346
-341
-314
-305
-288
-266
-278
-283
-251
-242
-268
-251
-193
-176
-213
-217
-203
-205
-203
-191
-176
-162
-169
-196
-232
-208
-125
-123
-157
-133
-106
-94
-77
-87
-101
-96
-94
-104
-130
-142
-123
-135
-162
-145
-130
-162
-157
-125
-147
-171
-164
-135
19
365
716
750
171
-530
-491
-157
-244
-353
-249
-227
-259
-222
-222
-242
-215
-200
-208
-205
-200
-200
-191
-186
-179
-157
-142
-135
-123
-106
-89
-77
-67
-70
-72
-72
-84
-94
-99
-123
-164
-193
-215
-232
-232
-230
-242
-242
-230
-220
-198
-184
-188
-188
-179
-169
-167
-162
-147
-142
-135
-121
-125
-135
-123
-118
-125
-123
-121
-121
-116
-118
-118
-99
-82
-72
-70
-72
-77
-94
-121
-123
-116
-128
-133
-116
-104
-116
-123
-121
-130
-130
-118
-133
-67
234
673
939
622
-263
-663
-259
-125
-341
-297
-200
-244
-244
-198
-188
-193
-200
-200
-198
-193
-186
-188
-188
-171
-159
-157
-140
-116
-104
-94
-65
-41
-38
-36
-29
-33
-41
-53
-79
-116
-162
-198
-213
-220
-227
-227
-227
-227
-213
-203
-217
-225
-205
-188
-188
-181
-162
-152
-147
-140
-135
-125
-116
-116
-128
-130
-123
-125
-133
-142
-150
-147
-138
-125
-106
-94
-99
-108
-111
-104
-111
-128
-121
-111
-125
-125
-108
-121
-145
-130
-99
-111
-152
-138
48
423
837
917
230
-595
-503
-125
-256
-365
-244
-234
-278
-225
-193
-217
-213
-184
-174
-171
-164
-174
-181
-164
-157
-157
-142
-125
-111
-99
-84
-53
-26
-29
-29
-24
-26
-29
-36
-70
-123
-171
-191
-196
-210
-225
-215
-193
-200
-208
-186
-179
-188
-167
-138
-145
-164
-159
-138
-118
-125
-135
-125
-118
-118
-113
-118
-128
-130
-125
-135
-162
-169
-138
-96
-99
-125
-116
-130
-188
-145
-87
-159
-179
-94
-125
-196
-154
-145
-188
-179
-140
-123
-147
-125
138
554
791
590
-159
-658
-322
-99
-309
-302
-220
-314
-314
-208
-176
-179
-167
-191
-220
-188
-154
-174
-184
-179
-176
-135
-113
-140
-106
-77
-99
-67
-24
-36
-33
-19
-43
-55
-55
-118
-220
-244
-200
-220
-283
-280
-259
-239
-232
-268
-261
-239
-273
-266
-268
-307
-251
-191
-152
-92
-246
-372
-157
-104
-292
-184
-41
-159
-164
-113
-210
-256
-205
-186
-193
-200
-200
-191
-196
-188
-203
-254
-239
-186
-227
-249
-179
-174
-246
-261
-210
-198
-210
-208
-215
-99
239
651
825
334
-513
-627
-230
-268
-430
-336
-297
-341
-307
-271
-271
-268
-259
-242
-254
-266
-246
-230
-237
-242
-225
-210
-210
-208
-191
-169
-142
-125
-113
-99
-75
-67
-92
-96
-106
-167
-220
-227
-259
-295
-271
-244
-261
-259
-249
-246
-227
-210
-215
-222
-222
-213
-193
-184
-191
-196
-186
-171
-167
-174
-167
-145
-147
-164
-159
-147
-152
-164
-164
-159
-159
-159
-145
-116
-106
-121
-130
-128
-123
-130
-145
-145
-140
-140
-142
-138
-123
-121
-152
-159
-145
-154
-79
193
600
917
690
-188
-653
-288
-140
-348
-312
-215
-259
-261
-217
-220
-215
-193
-188
-184
-174
-174
-169
-162
-164
-159
-145
-135
-116
-99
-92
-77
-48
-29
-33
-33
-21
-29
-55
-94
-128
-154
-193
-227
-242
-254
-249
-225
-222
-230
-222
-210
-203
-198
-191
-184
-181
-179
-164
-152
-157
-169
-171
-159
-154
-152
-145
-145
-150
-150
-147
-147
-154
-167
-179
-186
-191
-181
-167
-162
-147
-138
-145
-154
-150
-154
-171
-174
-157
-157
-171
-169
-157
-159
-159
-154
-154
-164
-179
-121
106
489
866
794
-16
-641
-382
-167
-365
-370
-251
-278
-292
-244
-239
-249
-227
-217
-213
-196
-191
-191
-181
-162
-152
-147
-147
-142
-123
-101
-82
-67
-67
-70
-58
-48
-58
-65
-79
-123
-169
-193
-210
-227
-232
-232
-230
-213
-198
-205
-213
-205
-198
-196
-184
-176
-184
-184
-169
-162
-157
-142
-150
-159
-138
-125
-138
-135
-130
-135
-135
-135
-142
-150
-154
-157
-152
-142
-138
-140
-133
-104
-87
-96
-108
-104
-113
-138
-138
-133
-138
-138
-140
-147
-138
-130
-147
-157
-154
-167
-145
16
338
721
849
305
-481
-539
-222
-276
-370
-295
-273
-273
-220
-208
-263
-278
-213
-128
-116
-188
-193
-145
-157
-179
-179
-184
-179
-152
-140
-135
-116
-94
-87
-79
-72
-72
-82
-108
-140
-171
-215
-259
-285
-295
-288
-271
-271
-280
-268
-242
-242
-256
-237
-213
-215
-232
-234
-225
-215
-198
-186
-191
-200
-188
-171
-169
-181
-196
-193
-159
-150
-193
-208
-167
-176
-210
-176
-154
-162
-142
-121
-99
-92
-113
-121
-135
-169
-171
-169
-193
-196
-181
-179
-181
-181
-186
-186
-193
-171
31
411
733
680
9
-639
-479
-186
-322
-375
-256
-261
-292
-256
-244
-237
-215
-217
-222
-205
-198
-198
-181
-174
-188
-186
-159
-142
-135
-113
-99
-84
-62
-60
-46
-4
-26
-79
-79
-79
-145
-203
-213
-225
-254
-246
-210
-220
-244
-225
-200
-200
-198
-196
-198
-196
-184
-174
-174
-181
-174
-154
-157
-171
-164
-167
-171
-159
-162
-167
-159
-167
-184
-174
-157
-157
-169
-181
-193
-186
-164
-164
-159
-135
-128
-133
-130
-142
-157
-174
-181
-164
-157
-181
-191
-171
-162
-162
-164
-162
-167
-191
-152
92
498
830
723
-48
-648
-382
-138
-314
-334
-249
-276
-259
-205
-213
-215
-193
-181
-181
-181
-174
-159
-152
-145
-130
-125
-121
-113
-99
-77
-60
-43
-29
-21
-14
-12
-14
-26
-53
-89
-128
-164
-191
-203
-210
-217
-215
-210
-208
-200
-191
-188
-196
-203
-191
-176
-179
-181
-171
-162
-154
-145
-145
-142
-133
-135
-140
-133
-128
-133
-140
-138
-135
-140
-135
-128
-135
-147
-145
-140
-140
-138
-125
-111
-99
-96
-101
-106
-116
-130
-138
-135
-138
-147
-147
-145
-145
-145
-140
-135
-138
-147
-157
-75
205
617
920
612
-280
-644
-268
-188
-382
-317
-232
-273
-261
-227
-242
-234
-215
-208
-193
-176
-176
-171
-159
-154
-145
-125
-121
-123
-106
-82
-67
-58
-43
-36
-33
-36
-46
-53
-72
-116
-162
-188
-198
-210
-222
-225
-220
-213
-210
-213
-200
-191
-193
-188
-176
-171
-167
-157
-145
-147
-152
-140
-138
-135
-123
-130
-135
-113
-111
-135
-145
-128
-111
-116
-130
-142
-162
-159
-135
-154
-193
-198
-174
-123
-77
-113
-154
-99
-53
-89
-138
-142
-142
-159
-167
-167
-169
-169
-164
-169
-169
-162
-179
-113
162
547
830
619
-193
-660
-329
-164
-360
-341
-244
-276
-276
-242
-244
-239
-222
-193
-179
-215
-205
-140
-145
-174
-154
-140
-135
-128
-123
-104
-77
-60
-46
-31
-24
-29
-46
-65
-75
-92
-140
-200
-227
-232
-246
-244
-246
-268
-268
-254
-244
-234
-232
-232
-225
-210
-200
-205
-196
-181
-181
-179
-169
-159
-162
-157
-138
-142
-157
-145
-140
-150
-154
-152
-154
-167
-171
-159
-162
-171
-164
-147
-142
-138
-130
-128
-128
-135
-150
-152
-157
-164
-159
-150
-154
-152
-140
-140
-140
-138
-147
-154
-89
157
552
886
745
-75
-648
-346
-128
-336
-338
-213
-237
-256
-205
-198
-208
-186
-171
-171
-169
-167
-162
-152
-150
-142
-133
-128
-121
-101
-89
-77
-65
-65
-65
-60
-60
-65
-75
-84
-106
-138
-169
-196
-210
-215
-217
-213
-205
-205
-200
-193
-188
-176
-164
-159
-157
-150
-140
-133
-125
-121
-125
-125
-118
-113
-113
-121
-128
-135
-140
-138
-140
-152
-167
-164
-150
-147
-152
-152
-152
-152
-157
-167
-162
-167
-171
-142
-113
-111
-121
-121
-123
-130
-140
-138
-135
-142
-159
-157
-135
-128
-130
-130
-133
-140
-150
-79
181
576
900
733
-82
-581
-280
-128
-312
-288
-200
-227
-225
-193
-184
-171
-150
-150
-154
-135
-133
-159
-159
-121
-125
-145
-70
-31
-82
-75
-33
-41
-31
9
2
-21
-19
-21
-31
-53
-111
-152
-164
-181
-179
-176
-196
-200
-176
-169
-171
-162
-152
-150
-157
-154
-162
-164
-121
-125
-188
-167
-121
-142
-147
-130
-154
-167
-128
-96
-99
-118
-159
-171
-108
-99
-140
-145
-159
-164
-140
-140
-142
-140
-147
-140
-130
-142
-135
-104
-111
-152
-179
-162
-140
-145
-159
-162
-150
-147
-162
-150
-118
-140
-176
-92
186
556
849
694
-111
-624
-300
-125
-326
-292
-162
-205
-251
-203
-174
-198
-196
-169
-152
-145
-154
-169
-154
-125
-123
-133
-130
-118
-108
-79
-36
-33
-48
-21
0
-36
-55
-9
-16
-92
-128
-140
-167
-186
-208
-230
-203
-191
-222
-205
-179
-205
-217
-193
-188
-198
-184
-169
-169
-162
-150
-138
-145
-150
-135
-135
-135
-130
-135
-142
-145
-133
-133
-157
-150
-133
-150
-154
-159
-171
-167
-164
-162
-169
-159
-135
-130
-130
-130
-145
-140
-116
-118
-147
-171
-174
-159
-157
-157
-150
-150
-145
-138
-152
-176
-104
169
578
881
639
-215
-660
-295
-140
-351
-322
-220
-268
-278
-217
-210
-217
-198
-191
-191
-169
-159
-164
-150
-142
-147
-125
-104
-101
-92
-75
-62
-46
-36
-24
-19
-33
-43
-38
-41
-72
-128
-171
-186
-191
-203
-213
-213
-203
-188
-186
-188
-174
-171
-176
-162
-147
-145
-145
-145
-142
-135
-128
-130
-133
-138
-140
-140
-145
-145
-145
-147
-150
-150
-152
-152
-157
-171
-179
-167
-164
-171
-174
-174
-171
-162
-150
-140
-123
-116
-125
-138
-135
-138
-142
-152
-157
-145
-140
-147
-150
-147
-145
-142
-142
-154
-152
-24
295
702
941
508
-375
-566
-176
-184
-341
-244
-193
-246
-222
-184
-191
-181
-157
-154
-154
-138
-130
-140
-142
-128
-123
-125
-113
-92
-77
-67
-55
-43
-36
-43
-53
-60
-70
-75
-89
-113
-138
-169
-196
-208
-205
-203
-200
-198
-193
-184
-176
-171
-167
-159
-150
-152
-167
-154
-128
-138
-147
-133
-121
-118
-121
-125
-130
-128
-128
-138
-138
-138
-147
-147
-150
-150
-145
-150
-157
-157
-164
-164
-150
-140
-142
-140
-130
-108
-116
-147
-142
-133
-145
-142
-130
-140
-154
-152
-152
-154
-135
-123
-150
-171
-167
-53
271
697
922
513
-375
-629
-193
-138
-338
-278
-213
-249
-225
-176
-184
-208
-198
-164
-145
-152
-152
-140
-140
-135
-111
-99
-106
-96
-70
-62
-29
-4
-38
-38
-4
-9
-21
-29
-53
-89
-111
-130
-157
-179
-196
-203
-198
-174
-157
-169
-184
-186
-154
-125
-150
-162
-142
-138
-128
-104
-113
-140
-138
-133
-142
-123
-99
-116
-138
-113
-106
-138
-145
-154
-167
-140
-140
-169
-167
-152
-164
-171
-154
-138
-140
-128
-99
-99
-96
-82
-113
-154
-145
-121
-121
-125
-125
-128
-130
-123
-108
-108
-116
-130
-123
36
392
777
900
341
-503
-535
-133
-200
-351
-249
-196
-232
-213
-174
-174
-181
-174
-159
-142
-147
-157
-147
-133
-116
-101
-101
-101
-87
-75
-58
-24
-4
-12
-26
-16
-4
-14
-36
-70
-106
-133
-159
-184
-193
-193
-198
-198
-186
-186
-176
-154
-157
-174
-164
-145
-133
-133
-138
-128
-121
-125
-123
-113
-101
-106
-121
-113
-104
-108
-116
-121
-123
-128
-128
-123
-128
-133
-150
-152
-116
-108
-135
-147
-142
-147
-142
-121
-101
-106
-113
-121
-128
-130
-133
-140
-138
-135
-125
-111
-121
-142
-135
-118
-123
-140
-121
38
382
777
895
288
-518
-481
-128
-234
-336
-220
-208
-244
-203
-181
-196
-188
-169
-152
-145
-150
-145
-133
-128
-128
-123
-116
-101
-92
-82
-72
-55
-38
-31
-29
-31
-38
-41
-46
-62
-89
-125
-159
-181
-191
-200
-208
-200
-203
-205
-188
-179
-176
-169
-164
-157
-147
-142
-147
-154
-150
-140
-128
-123
-125
-130
-130
-121
-116
-128
-140
-150
-171
-181
-169
-167
-167
-167
-171
-162
-157
-159
-152
-150
-157
-154
-135
-116
-101
-94
-101
-113
-121
-125
-133
-150
-140
-118
-135
-142
-128
-135
-150
-138
-118
-116
-138
-104
118
522
920
898
123
-590
-394
-116
-290
-319
-196
-230
-244
-167
-184
-234
-191
-154
-171
-169
-142
-130
-130
-138
-135
-106
-92
-106
-101
-72
-58
-55
-41
-14
-4
-12
-24
-36
-53
-84
-121
-152
-171
-179
-188
-200
-210
-203
-186
-186
-184
-169
-169
-174
-162
-154
-159
-157
-152
-147
-147
-145
-125
-123
-133
-130
-135
-140
-125
-130
-154
-167
-154
-135
-133
-154
-154
-150
-159
-147
-145
-167
-167
-154
-150
-133
-108
-104
-111
-108
-130
-157
-147
-140
-145
-145
-142
-128
-135
-162
-162
-145
-159
-179
-174
-125
96
527
920
801
-65
-752
-479
-208
-421
-457
-353
-404
-418
-368
-394
-435
-394
-338
-343
-375
-375
-392
-430
-435
-433
-445
-440
-418
-399
-372
-338
-317
-288
-249
-232
-225
-215
-217
-225
-239
-268
-300
-324
-329
-341
-355
-336
-314
-322
-334
-324
-312
-302
-295
-290
-271
-251
-242
-242
-230
-200
-171
-169
-174
-162
-147
-147
-150
-157
-162
-157
-159
-159
-150
-157
-162
-152
-150
-157
-162
-164
-164
-157
-142
-125
-121
-135
-135
-125
-142
-164
-167
-169
-174
-176
-176
-176
-176
-174
-169
-174
-181
-176
-184
-200
-101
232
697
941
484
-433
-663
-227
-186
-368
-280
-217
-273
-249
-196
-205
-205
-184
-179
-181
-171
-164
-162
-154
-142
-142
-138
-125
-123
-116
-94
-79
-75
-70
-72
-77
-75
-70
-82
-111
-135
-157
-186
-210
-222
-232
-237
-237
-227
-213
-213
-230
-227
-210
-210
-225
-220
-205
-203
-208
-193
-171
-162
-162
-162
-157
-152
-152
-150
-154
-164
-162
-159
-174
-174
-157
-154
-162
-159
-152
-154
-164
-159
-150
-147
-145
-125
-104
-99
-101
-101
-116
-140
-145
-138
-135
-135
-135
-135
-133
-133
-133
-121
-118
-130
-135
-135
-41
261
682
939
583
-292
-598
-208
-145
-336
-261
-181
-242
-242
-203
-215
-217
-196
-188
-176
-171
-174
-159
-142
-140
-135
-121
-106
-94
-82
-70
-55
-46
-31
-21
-21
-21
-31
-48
-58
-79
-123
-162
-181
-191
-198
-198
-198
-200
-208
-200
-186
-186
-184
-176
-174
-171
-162
-154
-150
-145
-142
-138
-128
-121
-121
-123
-123
-123
-123
-125
-135
-140
-150
-154
-140
-133
-147
-157
-154
-159
-167
-169
-162
-157
-147
-135
-121
-111
-108
-111
-121
-140
-145
-130
-123
-130
-138
-130
-113
-104
-116
-123
-113
-108
-121
-111
14
319
723
951
508
-377
-578
-176
-162
-326
-239
-186
-239
-215
-167
-171
-162
-130
-138
-157
-135
-111
-118
-113
-92
-87
-92
-79
-60
-50
-43
-24
-2
14
16
16
24
7
-19
-31
-65
-128
-164
-171
-186
-200
-188
-174
-176
-188
-188
-162
-150
-162
-164
-157
-157
-145
-135
-135
-142
-138
-128
-116
-104
-108
-104
-92
-96
-116
-123
-118
-125
-135
-125
-116
-118
-125
-130
-130
-130
-133
-133
-116
-89
-92
-104
-82
-60
-77
-101
-113
-121
-116
-108
-111
-118
-116
-111
-108
-106
-111
-118
-128
-140
-99
104
476
854
832
77
-624
-409
-96
-271
-322
-196
-203
-230
-191
-179
-179
-162
-150
-159
-159
-145
-135
-133
-130
-121
-111
-101
-101
-96
-79
-60
-43
-26
-19
-9
-2
-14
-29
-38
-75
-121
-154
-181
-205
-217
-220
-220
-220
-215
-208
-198
-196
-198
-193
-184
-179
-179
-171
-159
-162
-169
-159
-152
-159
-157
-140
-135
-138
-138
-133
-135
-138
-140
-147
-150
-142
-138
-142
-140
-133
-138
-142
-142
-133
-116
-101
-87
-79
-92
-101
-106
-121
-135
-142
-145
-145
-140
-130
-123
-123
-123
-121
-118
-116
-125
-116
38
380
784
944
380
-467
-493
-111
-198
-326
-208
-184
-230
-193
-164
-169
-159
-154
-152
-130
-116
-121
-121
-123
-121
-113
-106
-84
-65
-65
-53
-24
-9
0
4
0
-2
4
-2
-26
-72
-125
-150
-157
-174
-188
-191
-184
-169
-167
-169
-157
-152
-152
-138
-128
-133
-121
-111
-125
-133
-113
-94
-92
-104
-116
-106
-92
-94
-104
-106
-108
-116
-116
-106
-113
-133
-135
-125
-123
-121
-123
-133
-123
-101
-89
-79
-77
-89
-94
-94
-111
-118
-108
-113
-118
-106
-106
-113
-106
-101
-101
-101
-99
-101
-111
-9
292
704
982
660
-237
-602
-208
-118
-324
-259
-171
-215
-200
-157
-162
-159
-138
-135
-135
-125
-118
-113
-108
-108
-96
-79
-77
-87
-75
-38
-19
-21
-7
14
19
26
33
14
-26
-70
-116
-164
-191
-188
-188
-200
-200
-200
-205
-196
-181
-169
-162
-162
-159
-152
-147
-140
-142
-150
-145
-138
-145
-147
-133
-121
-118
-116
-118
-118
-121
-130
-135
-138
-142
-135
-125
-138
-147
-135
-135
-150
-138
-108
-101
-99
-82
-79
-89
-101
-113
-121
-123
-123
-121
-113
-111
-116
-118
-106
-104
-104
-116
-147
-125
77
457
866
951
259
-568
-469
-108
-263
-360
-222
-210
-249
-203
-176
-186
-174
-157
-154
-152
-140
-133
-128
-121
-111
-99
-89
-87
-77
-62
-53
-36
-12
-2
-2
0
7
0
-19
-48
-96
-140
-167
-188
-203
-210
-210
-208
-203
-193
-188
-188
-188
-184
-174
-159
-154
-159
-159
-147
-138
-138
-147
-150
-142
-133
-125
-125
-135
-147
-147
-140
-142
-152
-164
-174
-167
-152
-147
-147
-159
-167
-152
-147
-154
-142
-118
-116
-104
-79
-84
-101
-118
-138
-142
-133
-130
-135
-138
-130
-125
-123
-118
-111
-113
-128
-138
-75
162
552
898
774
-29
-600
-319
-113
-300
-290
-179
-217
-230
-184
-179
-181
-154
-150
-154
-140
-130
-130
-125
-113
-104
-101
-96
-84
-70
-55
-48
-41
-31
-14
-7
-7
-16
-38
-65
-89
-123
-167
-196
-200
-200
-213
-208
-193
-191
-196
-198
-191
-174
-162
-152
-142
-145
-157
-147
-133
-142
-140
-116
-116
-121
-113
-106
-104
-104
-116
-128
-125
-128
-130
-125
-140
-147
-128
-123
-140
-142
-142
-152
-164
-157
-135
-125
-125
-111
-101
-106
-111
-121
-140
-142
-138
-154
-167
-152
-142
-154
-159
-147
-138
-133
-147
-171
-128
99
493
874
890
174
-593
-457
-121
-263
-336
-215
-225
-261
-210
-179
-186
-179
-167
-169
-152
-123
-123
-147
-142
-118
-104
-99
-92
-79
-62
-48
-24
2
12
14
26
24
0
-19
-41
-87
-135
-162
-174
-193
-210
-203
-188
-184
-176
-174
-181
-171
-154
-167
-169
-159
-171
-181
-157
-135
-133
-130
-128
-130
-121
-106
-111
-125
-123
-123
-130
-128
-128
-135
-138
-140
-142
-130
-121
-133
-140
-140
-145
-135
-113
-104
-99
-82
-72
-79
-101
-113
-111
-111
-113
-111
-106
-111
-116
-111
-108
-118
-113
-104
-128
-142
-33
273
692
975
656
-259
-644
-234
-130
-341
-278
-181
-237
-242
-196
-196
-196
-167
-152
-152
-145
-140
-138
-128
-116
-111
-108
-101
-94
-77
-60
-43
-26
-16
-9
0
4
0
-14
-38
-77
-121
-157
-186
-213
-222
-220
-222
-215
-205
-208
-208
-198
-191
-186
-184
-181
-184
-186
-181
-174
-167
-162
-152
-140
-140
-142
-142
-145
-150
-157
-157
-150
-150
-152
-152
-154
-159
-167
-164
-159
-154
-152
-152
-150
-150
-150
-138
-125
-111
-94
-92
-99
-101
-111
-128
-140
-152
-152
-138
-138
-145
-145
-138
-128
-123
-123
-128
-147
-133
46
409
813
944
314
-532
-498
-125
-249
-358
-237
-227
-263
-225
-203
-217
-208
-184
-179
-169
-157
-154
-152
-140
-130
-125
-118
-106
-92
-75
-62
-55
-41
-36
-33
-24
-21
-36
-53
-72
-106
-147
-179
-198
-217
-230
-225
-213
-210
-210
-205
-200
-200
-191
-181
-186
-186
-174
-164
-157
-147
-140
-140
-140
-133
-125
-121
-121
-135
-142
-130
-123
-125
-123
-123
-128
-133
-133
-123
-121
-133
-138
-130
-121
-121
-125
-130
-128
-106
-89
-87
-77
-62
-65
-77
-92
-92
-94
-113
-128
-116
-104
-104
-101
-101
-104
-99
-92
-104
-130
-101
79
445
840
917
271
-547
-493
-125
-242
-326
-157
-147
-254
-230
-164
-147
-150
-147
-174
-196
-133
-89
-135
-152
-125
-133
-133
-94
-77
-89
-96
-70
-24
-31
-29
-2
-26
-72
-77
-84
-140
-184
-198
-225
-256
-263
-259
-251
-239
-230
-227
-213
-213
-227
-232
-215
-193
-222
-249
-181
-147
-210
-232
-208
-193
-171
-169
-174
-169
-179
-198
-205
-198
-179
-184
-188
-145
-133
-176
-188
-188
-176
-125
-145
-203
-176
-135
-145
-164
-152
-108
-77
-113
-159
-157
-140
-162
-203
-174
-121
-145
-174
-152
-154
-196
-203
-159
-128
-147
-38
338
755
813
171
-595
-518
-142
-249
-380
-280
-246
-285
-263
-232
-246
-242
-210
-213
-215
-198
-205
-196
-179
-186
-181
-174
-181
-145
-94
-99
-92
-62
-77
-75
-7
19
-46
-89
-96
-121
-147
-176
-191
-196
-213
-251
-273
-244
-220
-222
-217
-225
-222
-198
-198
-193
-167
-162
-179
-198
-213
-217
-179
-111
-135
-188
-150
-123
-142
-145
-157
-169
-152
-150
-164
-181
-184
-159
-150
-162
-164
-169
-179
-164
-157
-179
-169
-152
-128
-75
-77
-118
-96
-79
-133
-162
-138
-130
-138
-130
-116
-113
-125
-125
-123
-123
-116
-140
-140
-12
271
663
920
506
-368
-556
-164
-169
-338
-239
-169
-213
-210
-174
-164
-174
-169
-142
-128
-140
-138
-113
-104
-108
-108
-108
-89
-67
-67
-70
-70
-58
-29
-21
-29
-31
-38
-48
-60
-87
-123
-157
-191
-213
-205
-200
-208
-208
-205
-198
-186
-174
-167
-169
-171
-171
-164
-167
-171
-171
-162
-164
-167
-159
-154
-150
-157
-162
-152
-152
-162
-159
-152
-152
-159
-154
-147
-157
-159
-145
-135
-142
-152
-150
-140
-140
-145
-135
-116
-108
-94
-82
-84
-82
-94
-121
-135
-133
-130
-133
-130
-123
-123
-125
-116
-108
-118
-135
-147
-121
62
438
859
932
232
-542
-423
-116
-271
-334
-213
-220
-246
-210
-205
-210
-188
-171
-162
-157
-159
-154
-135
-130
-133
-118
-106
-101
-92
-77
-62
-48
-26
-16
-19
-21
-21
-33
-43
-60
-92
-128
-159
-179
-191
-200
-200
-198
-196
-191
-186
-196
-203
-198
-188
-186
-179
-181
-179
-167
-176
-184
-159
-147
-147
-138
-140
-154
-157
-147
-152
-162
-154
-140
-147
-154
-140
-140
-150
-145
-138
-140
-138
-142
-150
-150
-140
-128
-121
-116
-96
-79
-82
-92
-104
-118
-111
-106
-118
-118
-106
-106
-113
-113
-111
-104
-101
-118
-140
-94
125
522
917
890
106
-614
-409
-111
-280
-324
-200
-210
-232
-193
-188
-188
-157
-150
-159
-140
-125
-135
-133
-121
-116
-108
-94
-84
-75
-50
-31
-29
-33
-33
-19
-9
-14
-26
-46
-70
-104
-150
-181
-193
-203
-210
-210
-200
-193
-193
-198
-196
-176
-169
-184
-179
-157
-154
-159
-150
-138
-135
-135
-123
-116
-121
-123
-113
-113
-123
-135
-140
-138
-142
-150
-147
-138
-135
-140
-138
-133
-135
-140
-145
-145
-142
-130
-116
-106
-89
-84
-96
-111
-123
-125
-123
-125
-138
-142
-130
-123
-130
-133
-128
-116
-121
-140
-142
-16
307
740
1009
576
-377
-619
-186
-167
-358
-261
-191
-251
-234
-186
-188
-186
-167
-157
-150
-145
-140
-125
-121
-123
-116
-111
-108
-94
-82
-79
-67
-50
-43
-33
-26
-36
-48
-58
-75
-96
-128
-159
-176
-186
-203
-213
-210
-208
-200
-193
-186
-186
-184
-171
-159
-162
-164
-159
-159
-154
-138
-128
-130
-133
-128
-118
-118
-118
-118
-128
-140
-147
-142
-138
-140
-142
-150
-152
-140
-130
-135
-135
-135
-128
-128
-140
-145
-128
-111
-108
-104
-87
-82
-94
-116
-138
-142
-133
-133
-140
-133
-125
-128
-123
-118
-123
-123
-121
-133
-94
125
518
903
871
92
-610
-384
-104
-290
-322
-200
-234
-268
-215
-198
-203
-181
-167
-174
-162
-147
-142
-140
-135
-133
-125
-113
-101
-94
-94
-96
-82
-67
-58
-43
-41
-60
-77
-77
-84
-108
-145
-184
-205
-208
-213
-213
-205
-198
-193
-193
-196
-188
-176
-167
-164
-169
-159
-140
-142
-154
-150
-125
-106
-108
-121
-121
-113
-108
-108
-106
-99
-96
-106
-113
-111
-104
-99
-111
-142
-113
-21
-16
-92
-138
-140
-113
-94
-72
-53
-70
-82
-38
-33
-89
-96
-84
-121
-123
-82
-75
-113
-145
-121
-108
-150
-133
-79
-147
-271
-203
140
595
922
706
-167
-675
-360
-220
-380
-309
-237
-334
-334
-225
-256
-317
-237
-196
-271
-280
-222
-263
-309
-230
-186
-198
-162
-171
-208
-181
-116
-101
-138
-123
-87
-101
-99
-58
-70
-138
-198
-256
-276
-266
-297
-300
-273
-297
-309
-268
-254
-271
-271
-256
-261
-273
-263
-242
-242
-254
-254
-242
-225
-220
-225
-232
-227
-208
-215
-232
-220
-220
-230
-217
-222
-239
-227
-210
-198
-196
-210
-220
-213
-208
-210
-203
-191
-174
-154
-152
-152
-135
-147
-191
-205
-186
-181
-181
-174
-176
-181
-174
-179
-184
-167
-169
-191
-200
-164
55
484
903
861
50
-653
-418
-142
-331
-368
-242
-256
-278
-222
-213
-234
-217
-191
-188
-186
-174
-162
-159
-159
-147
-128
-128
-140
-121
-99
-94
-79
-72
-84
-75
-60
-77
-92
-101
-116
-133
-167
-193
-198
-208
-220
-220
-215
-213
-213
-213
-205
-193
-184
-179
-171
-171
-169
-147
-138
-150
-150
-138
-128
-123
-123
-128
-130
-133
-128
-113
-121
-142
-140
-125
-130
-135
-123
-121
-130
-130
-118
-118
-125
-123
-125
-133
-128
-113
-99
-84
-75
-77
-87
-94
-106
-125
-125
-123
-123
-113
-116
-128
-121
-108
-116
-125
-104
-99
-128
-133
-31
259
682
966
624
-268
-605
-220
-150
-353
-273
-169
-222
-230
-181
-176
-181
-159
-152
-154
-140
-133
-130
-116
-108
-104
-96
-92
-82
-70
-50
-31
-26
-24
-16
-12
-9
-16
-29
-41
-60
-104
-138
-157
-191
-208
-193
-200
-217
-196
-191
-210
-193
-164
-174
-181
-179
-174
-157
-152
-154
-152
-154
-145
-133
-140
-147
-138
-135
-150
-152
-142
-147
-145
-128
-125
-138
-138
-128
-130
-140
-140
-130
-130
-140
-135
-135
-142
-128
-104
-106
-111
-87
-72
-92
-108
-118
-130
-135
-128
-118
-118
-123
-123
-118
-116
-116
-113
-121
-138
-135
-24
283
706
966
568
-348
-624
-208
-157
-346
-266
-188
-232
-225
-186
-188
-181
-162
-164
-167
-152
-145
-140
-128
-121
-118
-106
-108
-111
-87
-60
-48
-46
-43
-31
-24
-31
-43
-48
-55
-84
-121
-157
-196
-222
-215
-208
-215
-217
-210
-213
-213
-203
-196
-193
-191
-188
-184
-176
-159
-150
-152
-147
-128
-123
-128
-123
-125
-135
-130
-123
-123
-128
-130
-128
-130
-133
-125
-125
-142
-145
-135
-142
-140
-128
-133
-142
-140
-130
-128
-130
-125
-106
-87
-77
-79
-84
-101
-121
-113
-106
-111
-118
-128
-135
-125
-116
-118
-121
-121
-118
-118
-125
-24
290
728
1002
576
-355
-593
-181
-179
-363
-261
-200
-256
-232
-196
-208
-191
-164
-164
-167
-159
-164
-162
-152
-147
-145
-133
-123
-111
-94
-82
-75
-72
-60
-43
-38
-48
-58
-62
-79
-111
-150
-176
-198
-217
-222
-217
-213
-205
-203
-200
-198
-196
-196
-193
-179
-167
-174
-174
-159
-167
-174
-154
-147
-152
-152
-154
-154
-150
-150
-145
-140
-140
-140
-135
-140
-138
-128
-133
-130
-121
-116
-118
-121
-116
-111
-118
-128
-125
-123
-133
-138
-130
-108
-94
-89
-82
-77
-84
-101
-111
-111
-111
-104
-101
-108
-111
-108
-106
-89
-82
-92
-94
-89
-99
-9
292
726
1031
714
-188
-559
-188
-113
-302
-232
-154
-203
-188
-152
-171
-171
-150
-138
-125
-116
-116
-113
-101
-89
-89
-92
-67
-50
-50
-41
-21
0
19
7
0
21
4
-41
-50
-50
-89
-135
-171
-196
-200
-205
-225
-220
-191
-186
-196
-176
-167
-174
-174
-159
-150
-140
-128
-125
-133
-140
-130
-113
-106
-104
-94
-106
-121
-99
-99
-123
-118
-128
-142
-116
-96
-113
-128
-133
-140
-125
-106
-123
-142
-135
-128
-135
-145
-157
-154
-128
-121
-123
-96
-87
-123
-147
-145
-157
-162
-150
-150
-159
-157
-150
-150
-150
-157
-159
-150
-145
-159
-104
130
537
944
864
-19
-685
-355
-84
-312
-331
-191
-213
-246
-208
-186
-181
-176
-186
-188
-159
-142
-154
-147
-130
-135
-135
-111
-87
-89
-96
-67
-43
-41
-33
-26
-36
-43
-43
-55
-89
-128
-159
-181
-205
-232
-239
-227
-232
-234
-215
-200
-210
-222
-225
-230
-227
-215
-208
-198
-186
-171
-164
-162
-152
-152
-157
-142
-128
-135
-138
-133
-140
-147
-147
-152
-159
-154
-142
-140
-147
-135
-130
-138
-142
-147
-150
-128
-121
-133
-130
-133
-152
-154
-142
-125
-106
-92
-82
-75
-89
-106
-113
-113
-116
-121
-116
-108
-116
-116
-111
-101
-94
-101
-113
-123
-60
205
646
1007
786
-125
-634
-268
-106
-329
-300
-198
-239
-242
-205
-208
-196
-167
-164
-154
-133
-130
-135
-125
-116
-116
-111
-94
-82
-82
-75
-60
-46
-26
-14
-19
-29
-36
-55
-82
-108
-140
-174
-203
-222
-227
-227
-230
-230
-227
-227
-215
-196
-203
-213
-203
-188
-179
-167
-159
-162
-159
-150
-138
-128
-133
-133
-118
-108
-113
-128
-147
-157
-145
-130
-130
-130
-135
-147
-145
-130
-125
-128
-140
-154
-142
-116
-106
-113
-125
-135
-130
-123
-130
-123
-96
-87
-84
-72
-65
-67
-87
-106
-111
-116
-116
-96
-89
-106
-106
-92
-89
-87
-87
-94
-106
-94
62
426
854
997
397
-455
-457
-82
-193
-319
-196
-176
-222
-171
-147
-171
-152
-121
-133
-147
-133
-113
-111
-111
-101
-92
-94
-87
-72
-60
-36
-14
-2
7
4
0
-2
-21
-43
-62
-82
-113
-152
-179
-186
-193
-196
-188
-184
-184
-179
-174
-174
-167
-159
-157
-152
-147
-135
-128
-118
-111
-113
-106
-94
-94
-99
-106
-108
-101
-101
-106
-104
-94
-92
-104
-101
-92
-101
-101
-94
-92
-96
-104
-113
-106
-96
-104
-101
-92
-99
-118
-123
-108
-82
-72
-75
-60
-46
-58
-79
-94
-94
-87
-92
-99
-96
-94
-99
-99
-96
-89
-89
-99
-118
-118
4
341
789
1033
556
-382
-573
-142
-150
-331
-234
-184
-234
-203
-167
-181
-169
-135
-130
-140
-135
-125
-121
-116
-116
-116
-101
-84
-70
-60
-55
-50
-43
-36
-36
-33
-29
-41
-62
-82
-108
-147
-184
-215
-237
-237
-222
-225
-234
-230
-215
-205
-200
-198
-193
-188
-184
-176
-167
-150
-140
-150
-147
-133
-130
-123
-113
-118
-125
-118
-118
-125
-130
-125
-123
-125
-123
-125
-138
-152
-150
-135
-125
-125
-138
-142
-133
-128
-125
-128
-135
-138
-140
-142
-130
-128
-123
-104
-94
-116
-140
-147
-150
-157
-152
-145
-150
-150
-147
-145
-135
-128
-130
-133
-142
-145
-2
370
820
1007
447
-472
-564
-135
-184
-343
-237
-203
-249
-215
-181
-179
-169
-169
-164
-142
-133
-145
-150
-142
-130
-118
-106
-111
-116
-82
-55
-60
-33
2
-9
-29
-31
-31
-31
-43
-55
-70
-181
-297
-268
-213
-181
-210
-295
-232
-152
-191
-174
-169
-213
-203
-205
-200
-138
-123
-184
-198
-169
-176
-186
-159
-150
-162
-164
-159
-159
-167
-169
-164
-162
-176
-198
-198
-184
-188
-203
-196
-181
-184
-193
-188
-188
-196
-193
-196
-198
-184
-167
-164
-157
-145
-142
-150
-171
-181
-164
-162
-169
-167
-164
-164
-162
-164
-167
-169
-164
-162
-167
-164
-26
368
832
956
312
-566
-561
-157
-256
-387
-259
-237
-290
-259
-225
-227
-213
-198
-196
-184
-176
-179
-167
-159
-164
-159
-145
-128
-116
-111
-106
-87
-62
-55
-65
-77
-77
-70
-82
-108
-140
-193
-225
-220
-225
-244
-251
-244
-237
-234
-225
-213
-217
-220
-220
-220
-203
-186
-186
-184
-169
-157
-145
-138
-145
-145
-140
-150
-159
-157
-154
-152
-154
-147
-138
-145
-157
-150
-133
-125
-128
-128
-133
-135
-128
-125
-118
-104
-111
-123
-133
-130
-123
-113
-108
-111
-101
-79
-84
-101
-101
-108
-130
-123
-104
-108
-125
-138
-116
-87
-94
-111
-116
-125
-133
-108
60
447
888
973
285
-568
-513
-123
-230
-341
-227
-205
-230
-193
-184
-198
-184
-171
-176
-179
-181
-171
-164
-167
-159
-142
-135
-125
-108
-94
-79
-58
-43
-38
-36
-38
-41
-58
-82
-101
-135
-181
-213
-232
-246
-251
-246
-246
-246
-232
-220
-217
-213
-203
-193
-188
-191
-184
-169
-157
-145
-142
-138
-125
-116
-116
-116
-108
-108
-118
-113
-111
-125
-140
-133
-128
-135
-130
-121
-113
-121
-121
-116
-128
-138
-133
-130
-128
-130
-138
-142
-135
-125
-116
-94
-77
-87
-94
-104
-116
-118
-123
-133
-138
-135
-125
-123
-133
-133
-116
-121
-128
-133
-140
-7
353
806
1033
506
-443
-578
-152
-205
-377
-259
-213
-271
-237
-196
-208
-200
-181
-174
-174
-174
-169
-162
-157
-157
-152
-135
-118
-108
-99
-84
-62
-41
-26
-26
-33
-33
-38
-53
-79
-116
-154
-191
-222
-227
-232
-259
-271
-249
-232
-234
-230
-222
-213
-203
-196
-191
-186
-174
-159
-145
-138
-140
-138
-121
-113
-116
-108
-108
-113
-104
-96
-104
-113
-116
-113
-111
-106
-106
-106
-99
-106
-113
-111
-108
-104
-96
-106
-106
-99
-101
-104
-101
-108
-101
-75
-53
-53
-55
-65
-84
-104
-106
-99
-104
-108
-96
-87
-96
-101
-104
-99
-82
-82
-106
-121
-29
259
675
1014
765
-164
-624
-232
-92
-324
-288
-150
-196
-239
-215
-227
-191
-84
-113
-191
-108
-60
-75
-58
-116
-167
-184
-159
-43
-62
-142
-65
-19
-50
-33
-9
-19
-36
-43
-58
-104
-157
-198
-227
-256
-263
-251
-259
-285
-280
-263
-261
-251
-237
-244
-242
-227
-225
-220
-213
-220
-225
-200
-184
-215
-222
-179
-164
-184
-179
-167
-176
-176
-159
-157
-162
-159
-157
-159
-164
-162
-147
-159
-171
-157
-159
-164
-154
-159
-167
-154
-147
-140
-113
-94
-106
-118
-116
-125
-140
-142
-138
-140
-145
-138
-138
-140
-133
-121
-121
-128
-130
-135
-133
2
351
789
987
428
-479
-566
-171
-237
-384
-271
-222
-273
-254
-225
-227
-208
-184
-181
-174
-167
-169
-157
-140
-138
-135
-123
-121
-118
-89
-62
-65
-60
-33
-14
-14
-26
-38
-62
-99
-133
-169
-210
-237
-249
-259
-261
-256
-251
-244
-242
-234
-225
-220
-215
-198
-196
-198
-186
-179
-179
-174
-162
-154
-154
-150
-145
-154
-162
-154
-150
-150
-150
-150
-150
-152
-150
-147
-147
-145
-140
-138
-138
-138
-135
-133
-125
-123
-125
-121
-121
-125
-121
-113
-99
-79
-79
-94
-94
-89
-101
-108
-111
-121
-123
-123
-118
-108
-108
-118
-118
-108
-99
-104
-130
-128
46
433
859
1002
411
-464
-513
-125
-196
-331
-222
-191
-234
-200
-174
-186
-169
-157
-169
-164
-142
-135
-147
-138
-111
-125
-140
-113
-96
-89
-65
-48
-41
-16
-9
-21
-16
-19
-38
-60
-111
-159
-179
-205
-237
-242
-239
-242
-232
-220
-225
-225
-210
-198
-191
-184
-179
-174
-176
-176
-162
-152
-142
-147
-167
-162
-130
-111
-123
-140
-138
-135
-150
-150
-118
-99
-140
-179
-164
-111
-41
-87
-188
-145
-48
-121
-210
-116
-89
-251
-242
-79
-89
-145
-118
-111
-125
-118
-104
-123
-150
-147
-135
-145
-152
-147
-150
-154
-147
-142
-152
-164
-164
-159
-138
16
392
815
844
125
-593
-435
-138
-307
-368
-246
-254
-271
-210
-210
-230
-203
-184
-188
-181
-164
-159
-164
-167
-164
-157
-147
-135
-123
-113
-108
-99
-82
-75
-77
-79
-92
-116
-128
-140
-162
-198
-230
-237
-237
-242
-249
-246
-237
-225
-222
-222
-213
-203
-198
-186
-171
-171
-176
-186
-181
-167
-167
-167
-159
-164
-169
-154
-145
-150
-154
-159
-154
-140
-138
-150
-145
-142
-138
-133
-130
-128
-128
-128
-111
-106
-123
-130
-128
-118
-116
-125
-128
-121
-116
-108
-87
-79
-99
-125
-138
-142
-142
-145
-147
-145
-147
-147
-138
-135
-140
-138
-123
-118
-145
-125
92
493
917
949
191
-571
-411
-116
-280
-329
-198
-205
-242
-205
-188
-184
-157
-140
-142
-142
-138
-125
-118
-116
-113
-108
-99
-89
-75
-58
-43
-43
-29
-7
-4
-2
-9
-50
-60
-53
-92
-140
-169
-198
-215
-208
-203
-210
-213
-208
-198
-203
-196
-181
-188
-196
-174
-152
-147
-150
-152
-140
-123
-121
-121
-111
-104
-108
-108
-104
-89
-89
-106
-108
-104
-104
-101
-99
-101
-101
-99
-101
-99
-104
-108
-104
-101
-108
-96
-94
-113
-121
-106
-92
-82
-70
-53
-50
-65
-72
-82
-94
-96
-96
-89
-87
-99
-101
-87
-89
-101
-89
-82
-99
-128
-70
203
641
1009
820
-84
-639
-295
-113
-338
-329
-210
-244
-249
-188
-186
-200
-169
-154
-164
-150
-130
-135
-133
-116
-113
-118
-104
-79
-67
-62
-50
-41
-36
-24
-12
-16
-33
-38
-50
-75
-111
-152
-184
-205
-225
-220
-200
-193
-196
-205
-210
-193
-176
-174
-162
-159
-174
-167
-154
-181
-176
-147
-162
-162
-94
-16
-38
-99
-82
-70
-101
-79
-29
-77
-133
-84
-75
-145
-157
-108
-101
-140
-125
-89
-128
-157
-138
-133
-150
-147
-140
-147
-154
-147
-130
-121
-130
-130
-123
-121
-125
-162
-188
-179
-179
-188
-174
-159
-179
-188
-164
-154
-174
-174
-169
-196
-138
162
634
961
634
-263
-629
-259
-171
-360
-305
-237
-290
-280
-242
-246
-227
-198
-200
-186
-159
-171
-179
-164
-154
-145
-123
-116
-113
-104
-89
-70
-53
-48
-48
-50
-60
-70
-87
-108
-121
-130
-164
-200
-217
-225
-227
-225
-220
-213
-205
-200
-193
-184
-176
-171
-157
-150
-150
-140
-125
-121
-113
-106
-108
-111
-108
-104
-89
-92
-116
-116
-92
-87
-111
-123
-118
-116
-123
-128
-133
-133
-123
-116
-125
-128
-111
-108
-116
-108
-94
-87
-96
-118
-116
-92
-77
-70
-53
-48
-55
-72
-84
-89
-94
-94
-99
-111
-106
-94
-96
-104
-96
-84
-82
-108
-130
-50
227
665
1021
796
-99
-602
-259
-96
-295
-261
-171
-220
-205
-152
-167
-169
-142
-135
-135
-135
-130
-128
-121
-108
-106
-116
-123
-101
-70
-62
-60
-38
-21
-19
-7
7
-4
-29
-43
-58
-92
-138
-167
-186
-200
-203
-200
-193
-188
-193
-188
-176
-169
-174
-184
-179
-167
-159
-147
-142
-147
-142
-116
-101
-106
-111
-111
-111
-111
-116
-111
-106
-113
-121
-118
-111
-111
-121
-118
-108
-113
-113
-101
-111
-123
-111
-116
-123
-106
-106
-138
-150
-135
-121
-108
-104
-89
-77
-87
-104
-108
-118
-130
-130
-128
-125
-125
-121
-113
-123
-125
-116
-113
-130
-157
-108
138
559
966
898
53
-639
-377
-101
-297
-326
-205
-242
-271
-237
-217
-154
-176
-271
-215
-116
-70
-16
-65
-171
-145
-41
-2
-48
-101
-108
-72
-36
-24
-14
-2
19
31
26
2
-55
-123
-176
-210
-239
-268
-288
-276
-249
-261
-292
-266
-230
-242
-249
-220
-205
-210
-215
-213
-208
-203
-200
-198
-191
-181
-181
-184
-171
-157
-159
-162
-150
-138
-142
-150
-159
-159
-154
-157
-157
-152
-157
-157
-150
-142
-142
-145
-145
-142
-133
-130
-138
-142
-135
-118
-101
-92
-84
-77
-87
-113
-125
-123
-135
-154
-152
-150
-147
-142
-154
-152
-138
-133
-140
-164
-154
2
360
818
1033
481
-418
-518
-147
-222
-372
-261
-222
-268
-232
-188
-203
-200
-169
-147
-152
-169
-164
-133
-121
-121
-106
-92
-84
-82
-82
-60
-33
-26
-16
4
14
9
4
-12
-31
-60
-101
-140
-169
-181
-186
-198
-200
-188
-191
-196
-191
-181
-176
-176
-181
-171
-162
-159
-145
-133
-130
-128
-125
-123
-113
-104
-104
-111
-113
-104
-94
-94
-101
-99
-99
-106
-104
-101
-108
-111
-106
-101
-106
-104
-101
-101
-101
-99
-99
-96
-99
-108
-113
-106
-94
-75
-60
-58
-62
-65
-72
-84
-99
-108
-116
-116
-99
-99
-116
-123
-106
-104
-113
-104
-104
-130
-101
108
518
961
990
203
-585
-416
-101
-283
-355
-230
-234
-261
-210
-188
-198
-188
-171
-167
-159
-154
-169
-174
-157
-152
-142
-133
-140
-138
-140
-130
-72
-33
-65
-101
-67
0
-14
-89
-106
-104
-150
-215
-217
-179
-200
-242
-244
-242
-225
-205
-217
-222
-191
-171
-184
-191
-181
-174
-167
-150
-140
-147
-140
-125
-133
-140
-128
-128
-140
-128
-118
-133
-142
-138
-135
-140
-140
-138
-140
-140
-138
-140
-142
-128
-123
-133
-142
-154
-154
-142
-147
-157
-152
-140
-121
-96
-84
-79
-79
-99
-123
-123
-121
-123
-121
-123
-116
-99
-104
-116
-108
-101
-106
-104
-106
-118
-4
343
815
1072
590
-363
-571
-140
-150
-348
-249
-179
-230
-208
-159
-167
-171
-159
-162
-164
-152
-135
-125
-121
-113
-108
-106
-94
-79
-67
-62
-55
-31
-14
-14
-16
-12
-12
-24
-50
-82
-118
-157
-188
-203
-215
-217
-210
-203
-205
-208
-203
-191
-181
-181
-176
-169
-162
-152
-138
-135
-130
-128
-125
-111
-96
-99
-111
-113
-113
-113
-111
-106
-104
-99
-101
-106
-104
-99
-101
-106
-106
-104
-111
-118
-116
-113
-111
-106
-104
-104
-106
-113
-123
-113
-94
-82
-72
-60
-62
-70
-77
-96
-106
-104
-106
-104
-96
-104
-118
-108
-101
-101
-99
-99
-111
-128
-87
140
561
992
999
203
-583
-397
-65
-268
-377
-237
-193
-225
-239
-220
-154
-138
-159
-135
-128
-140
-94
-89
-128
-89
-65
-118
-104
-65
-111
-106
-46
-9
-16
-60
-36
75
82
-24
-21
4
-123
-210
-222
-227
-147
-138
-244
-263
-217
-203
-193
-193
-200
-188
-179
-184
-188
-184
-174
-174
-181
-171
-162
-164
-164
-154
-162
-181
-179
-152
-147
-171
-174
-147
-140
-176
-188
-171
-169
-159
-152
-169
-164
-152
-164
-162
-147
-142
-140
-154
-167
-154
-147
-150
-140
-133
-130
-118
-101
-96
-104
-130
-142
-135
-140
-147
-138
-135
-150
-150
-142
-138
-123
-125
-135
-135
-133
-26
307
767
1024
581
-351
-595
-196
-193
-370
-261
-205
-278
-249
-198
-210
-196
-171
-176
-171
-157
-150
-157
-164
-152
-147
-147
-133
-113
-99
-92
-84
-50
-16
-12
-14
-7
-14
-24
-41
-75
-116
-159
-191
-217
-239
-237
-227
-227
-222
-210
-203
-200
-196
-191
-184
-176
-176
-176
-171
-171
-157
-138
-128
-123
-121
-121
-118
-118
-113
-104
-108
-113
-116
-111
-101
-106
-123
-128
-121
-113
-106
-104
-108
-104
-99
-113
-121
-111
-121
-142
-145
-135
-133
-135
-133
-116
-101
-94
-87
-94
-111
-130
-133
-118
-113
-130
-140
-130
-135
-147
-138
-128
-133
-133
-128
-140
-135
19
394
857
1053
472
-479
-583
-162
-213
-370
-251
-205
-256
-230
-203
-220
-200
-174
-181
-174
-159
-159
-157
-142
-145
-147
-130
-121
-118
-104
-92
-79
-60
-50
-38
-29
-43
-53
-58
-82
-116
-152
-193
-230
-239
-244
-251
-249
-239
-234
-227
-217
-208
-203
-205
-203
-188
-191
-203
-193
-176
-169
-157
-138
-130
-133
-130
-123
-118
-118
-118
-121
-121
-123
-125
-118
-113
-113
-116
-118
-118
-116
-113
-125
-130
-121
-113
-113
-113
-113
-113
-116
-113
-104
-111
-123
-118
-106
-94
-79
-70
-70
-82
-94
-108
-113
-106
-111
-125
-125
-116
-118
-121
-111
-106
-116
-116
-108
-125
-94
128
535
929
878
58
-646
-401
-118
-324
-370
-244
-263
-280
-232
-225
-232
-213
-196
-186
-176
-176
-179
-179
-169
-159
-152
-142
-128
-116
-104
-87
-65
-46
-29
-9
2
-14
-38
-43
-55
-101
-150
-181
-205
-227
-237
-227
-215
-220
-225
-215
-203
-198
-191
-174
-179
-188
-164
-133
-138
-145
-125
-113
-118
-111
-96
-99
-99
-92
-96
-106
-99
-99
-118
-133
-133
-118
-101
-99
-113
-123
-111
-94
-92
-99
-104
-96
-94
-96
-92
-94
-111
-108
-99
-99
-82
-58
-60
-60
-48
-55
-70
-79
-94
-106
-113
-108
-99
-108
-116
-108
-104
-99
-94
-96
-106
-121
-99
123
576
990
961
191
-585
-426
-75
-234
-317
-196
-205
-237
-179
-167
-188
-171
-154
-164
-162
-152
-159
-162
-147
-142
-135
-118
-106
-101
-87
-58
-36
-31
-24
-7
-2
-4
-4
-21
-58
-89
-118
-164
-205
-215
-208
-210
-213
-205
-200
-203
-196
-193
-198
-198
-188
-184
-181
-169
-154
-152
-142
-121
-104
-104
-111
-116
-113
-108
-106
-104
-99
-104
-111
-113
-113
-111
-101
-104
-106
-106
-123
-138
-128
-121
-123
-121
-111
-111
-113
-113
-111
-106
-106
-104
-96
-84
-53
-41
-67
-72
-65
-94
-118
-104
-106
-121
-118
-116
-123
-121
-96
-92
-101
-99
-108
-133
-58
230
658
966
711
-169
-634
-266
-121
-358
-324
-217
-266
-261
-210
-213
-208
-176
-171
-176
-164
-154
-154
-157
-154
-140
-130
-135
-123
-113
-116
-104
-75
-53
-46
-48
-46
-43
-53
-62
-79
-116
-154
-191
-234
-259
-249
-242
-246
-246
-239
-234
-230
-230
-232
-232
-225
-213
-227
-234
-213
-208
-215
-191
-169
-174
-181
-179
-164
-159
-159
-152
-147
-154
-164
-159
-145
-138
-140
-142
-140
-138
-138
-138
-135
-130
-125
-130
-135
-130
-133
-142
-142
-138
-138
-138
-128
-108
-87
-79
-92
-99
-106
-121
-121
-111
-108
-118
-116
-106
-104
-99
-94
-101
-116
-116
-116
-92
113
552
978
982
232
-559
-414
-60
-225
-312
-171
-164
-205
-162
-157
-193
-184
-154
-157
-174
-181
-174
-171
-159
-123
-111
-133
-138
-125
-106
-75
-55
-29
2
14
7
-2
-29
-60
-75
-113
-176
-225
-263
-292
-290
-280
-278
-273
-266
-259
-249
-254
-261
-254
-251
-249
-232
-222
-220
-198
-174
-186
-191
-162
-145
-145
-152
-164
-167
-159
-157
-174
-186
-174
-167
-176
-171
-159
-164
-167
-157
-145
-140
-140
-135
-138
-150
-159
-167
-159
-140
-125
-116
-101
-99
-104
-123
-147
-147
-130
-130
-138
-142
-147
-145
-138
-133
-138
-145
-140
-138
-140
-9
346
777
956
447
-450
-614
-193
-186
-355
-268
-220
-271
-246
-213
-220
-205
-191
-196
-188
-179
-181
-179
-167
-157
-147
-135
-138
-135
-108
-79
-72
-77
-53
-26
-21
-26
-24
-21
-55
-111
-150
-184
-217
-234
-234
-244
-266
-266
-246
-237
-232
-222
-215
-208
-215
-227
-203
-169
-167
-179
-174
-154
-142
-135
-121
-113
-116
-116
-113
-108
-101
-99
-108
-118
-116
-108
-106
-104
-101
-96
-94
-87
-84
-106
-111
-94
-116
-135
-108
-89
-96
-75
-48
-53
-55
-33
-38
-84
-113
-113
-99
-84
-101
-111
-96
-99
-125
-125
-84
-77
-92
-72
-12
208
634
1028
951
118
-644
-452
-147
-355
-392
-176
-217
-331
-237
-188
-230
-164
-116
-188
-179
-82
-79
-138
-111
-67
-113
-152
-101
-53
-41
-38
-12
36
50
29
21
16
-16
-55
-82
-116
-162
-217
-268
-285
-271
-290
-326
-273
-220
-251
-251
-210
-203
-203
-176
-154
-147
-138
-123
-108
-113
-125
-116
-92
-96
-125
-113
-77
-84
-96
-75
-55
-75
-87
-67
-50
-46
-50
-50
-41
-36
-38
-29
-19
-21
-19
-7
4
12
19
21
31
21
-9
-19
0
9
2
2
12
14
7
2
9
7
-7
-9
-14
26
268
721
1116
978
106
-566
-302
-21
-208
-246
-142
-164
-176
-125
-106
-108
-87
-67
-70
-67
-48
-43
-50
-43
-21
-24
-21
2
12
2
16
43
46
38
38
48
65
48
9
-21
-60
-104
-142
-174
-196
-203
-208
-210
-196
-186
-193
-188
-169
-142
-133
-147
-157
-135
-118
-108
-101
-99
-101
-96
-75
-58
-55
-46
-38
-36
-33
-38
-43
-55
-79
-94
-96
-101
-104
-99
-84
-79
-84
-89
-89
-84
-77
-72
-67
-50
-36
-46
-67
-75
-65
-58
-58
-55
-58
-67
-70
-60
-58
-67
-82
-84
-92
-84
67
443
886
1065
535
-384
-544
-133
-150
-309
-203
-157
-220
-193
-150
-152
-140
-118
-118
-113
-99
-96
-96
-87
-79
-84
-82
-72
-67
-65
-55
-48
-29
0
16
21
26
16
0
-21
-65
-113
-154
-203
-234
-239
-239
-246
-251
-246
-244
-244
-237
-227
-225
-217
-208
-210
-203
-167
-142
-152
-142
-108
-99
-108
-104
-92
-89
-89
-92
-94
-94
-96
-99
-106
-111
-106
-101
-104
-94
-82
-84
-96
-108
-108
-84
-62
-58
-48
-26
-14
-14
-19
-29
-41
-48
-53
-62
-82
-99
-108
-108
-108
-89
-77
-94
-104
9
341
784
1045
690
-225
-585
-184
-96
-302
-237
-152
-198
-179
-133
-150
-142
-101
-92
-89
-77
-62
-60
-62
-53
-38
-19
4
12
12
26
41
46
58
70
77
75
55
29
12
-24
-82
-123
-147
-188
-222
-230
-213
-196
-186
-167
-154
-157
-147
-140
-147
-133
-123
-138
-125
-113
-121
-116
-113
-123
-113
-94
-99
-121
-123
-108
-111
-140
-152
-142
-145
-145
-138
-147
-157
-157
-167
-167
-145
-128
-118
-106
-99
-94
-106
-138
-140
-125
-130
-135
-116
-106
-121
-130
